Name:  Albite NaAlSi3O8
Type:  Mineral
Class:  Silicates
Subclass:  Tectosilicates (Framework silicates) (Feldspar Group)
Particle Size:  Solid
Sample No.:  albite.1
Owner:  JHU
Wavelength Range:  IR
Origin:  Sample from Rutherford, Virginia, USA via the Smithsonian 
(sample no. NMNHC5390) and Bruce Hemingway.
Description: The sample was a large (2 cm x 2 cm x 2 cm) fragment of 
a twinned crystal.  The sample appeared very fresh.  It was 
translucent and light gray to white in color.  This is a sample of the classic 
Amelia albite.


Measurement:  Bidirectional reflectance 
First Column:  X
Second Column:  Y  
X Units:  Wavelength (micrometers)
Y Units:  Reflectance (percent)
First X Value:  25.0442
Last X Value:  2.079
Number of X Values:  2287
Additional Information: albite1a.txt

399.2940	45.1581
401.2230	45.4940
403.1520	45.1522
405.0810	44.5126
407.0100	42.7850
408.9380	40.1601
410.8670	37.8026
412.7960	37.2743
414.7250	39.4765
416.6540	42.8905
418.5830	45.5790
420.5120	46.9296
422.4410	46.5341
424.3700	44.7528
426.2990	42.4452
428.2280	38.8241
430.1570	34.1015
432.0860	29.0029
434.0150	24.1962
435.9440	20.7246
437.8730	19.1835
439.8020	19.5434
441.7310	20.6508
443.6600	22.0292
445.5890	23.6352
447.5180	25.7563
449.4470	29.2602
451.3760	33.4399
453.3050	35.6776
455.2330	35.4711
457.1620	34.0019
459.0910	32.6581
461.0200	33.0024
462.9490	34.7900
464.8780	36.4223
466.8070	37.3070
468.7360	37.3480
470.6650	36.8559
472.5940	37.0829
474.5230	38.8710
476.4520	41.2269
478.3810	42.9223
480.3100	43.8270
482.2390	44.0238
484.1680	43.4555
486.0970	42.3153
488.0260	40.4403
489.9550	37.7274
491.8840	34.3212
493.8130	30.6684
495.7420	26.9965
497.6710	23.4653
499.6000	20.5986
501.5280	18.8071
503.4570	18.0644
505.3860	18.1210
507.3150	18.4990
509.2440	18.8852
511.1730	19.3081
513.1020	19.7871
515.0310	20.1193
516.9600	20.4218
518.8890	20.8632
520.8180	21.2219
522.7470	21.4648
524.6760	21.8420
526.6050	22.1806
528.5340	22.4785
530.4630	22.9296
532.3920	23.3400
534.3210	23.6281
536.2500	24.0292
538.1790	24.5024
540.1080	25.0390
542.0370	25.9970
543.9660	27.4745
545.8950	28.6991
547.8230	28.9924
549.7520	28.6095
551.6810	28.0273
553.6100	27.6506
555.5390	27.7707
557.4680	28.3232
559.3970	29.0204
561.3260	29.7648
563.2550	30.7499
565.1840	31.8820
567.1130	33.1757
569.0420	34.8056
570.9710	36.9091
572.9000	39.3642
574.8290	42.0131
576.7580	44.6625
578.6870	46.9232
580.6160	48.6014
582.5450	49.8861
584.4740	50.8819
586.4030	51.6053
588.3320	52.1278
590.2610	52.4122
592.1900	52.6078
594.1180	52.7374
596.0470	52.6310
597.9760	52.2220
599.9050	51.7728
601.8340	51.0340
603.7630	49.7384
605.6920	47.8077
607.6210	44.8126
609.5500	40.4345
611.4790	35.8114
613.4080	32.7582
615.3370	32.1943
617.2660	33.7616
619.1950	36.3222
621.1240	38.2287
623.0530	38.4926
624.9810	37.4513
626.9100	35.5822
628.8390	33.1994
630.7680	30.8271
632.6970	28.7392
634.6260	26.9836
636.5550	25.5761
638.4840	24.7277
640.4130	24.4787
642.3420	24.7739
644.2710	25.7109
646.2000	27.3559
648.1290	29.6249
650.0580	32.1955
651.9870	34.5917
653.9160	36.4228
655.8450	37.5666
657.7740	37.9545
659.7030	37.4018
661.6320	35.8964
663.5610	33.5976
665.4900	30.9330
667.4190	28.5937
669.3480	26.8906
671.2760	25.7431
673.2050	25.0297
675.1340	24.5932
677.0630	24.2741
678.9920	24.0283
680.9210	23.8720
682.8500	23.8303
684.7790	23.7685
686.7080	23.7414
688.6370	23.7736
690.5660	23.7844
692.4950	23.7866
694.4240	23.8498
696.3530	23.9526
698.2820	24.0585
700.2110	24.1992
702.1400	24.3542
704.0690	24.4911
705.9980	24.6298
707.9270	24.8105
709.8560	25.0590
711.7850	25.2971
713.7140	25.5795
715.6430	25.9194
717.5710	26.3080
719.5000	26.7482
721.4290	27.2690
723.3580	27.6769
725.2870	27.6244
727.2160	26.8398
729.1450	25.6325
731.0740	24.8063
733.0030	24.6967
734.9320	25.0915
736.8610	25.7599
738.7900	26.5937
740.7190	27.5099
742.6480	28.4218
744.5770	29.0170
746.5060	28.8678
748.4350	27.6642
750.3640	25.9025
752.2930	24.5204
754.2220	24.0053
756.1510	24.3200
758.0800	25.1664
760.0090	26.3434
761.9380	27.8620
763.8660	29.5876
765.7950	30.8691
767.7240	30.8691
769.6530	29.2206
771.5820	26.3268
773.5110	22.9423
775.4400	20.0505
777.3690	18.4729
779.2980	18.1799
781.2270	18.5844
783.1560	19.2456
785.0850	19.9677
787.0140	20.6943
788.9430	21.3769
790.8720	21.7988
792.8010	21.6166
794.7290	20.8959
796.6580	20.2631
798.5870	20.0559
800.5160	20.1005
802.4450	20.2749
804.3740	20.4990
806.3030	20.7045
808.2320	20.9233
810.1610	21.1171
812.0900	21.2436
814.0190	21.3989
815.9480	21.5659
817.8770	21.7187
819.8060	21.8466
821.7350	21.9833
823.6640	22.1254
825.5930	22.2236
827.5220	22.3388
829.4510	22.4829
831.3800	22.6298
833.3090	22.7490
835.2380	22.8388
837.1670	22.9262
839.0960	23.0356
841.0240	23.1718
842.9530	23.2773
844.8820	23.3593
846.8110	23.4555
848.7400	23.5766
850.6690	23.6674
852.5980	23.7783
854.5270	23.8969
856.4560	24.0068
858.3850	24.0966
860.3140	24.1889
862.2430	24.2890
864.1720	24.3598
866.1010	24.4628
868.0300	24.5707
869.9590	24.6533
871.8880	24.7778
873.8170	24.9052
875.7460	25.0014
877.6750	25.1054
879.6040	25.2333
881.5330	25.3427
883.4620	25.4203
885.3910	25.5239
887.3190	25.6684
889.2480	25.7756
891.1770	25.8813
893.1060	26.0180
895.0350	26.1323
896.9640	26.2245
898.8930	26.3364
900.8220	26.4521
902.7510	26.5676
904.6800	26.6982
906.6090	26.8425
908.5380	26.9457
910.4670	27.0663
912.3960	27.2343
914.3250	27.3730
916.2540	27.4853
918.1830	27.6327
920.1120	27.8029
922.0410	27.9594
923.9700	28.1088
925.8990	28.2673
927.8280	28.4157
929.7570	28.5734
931.6860	28.7529
933.6140	28.9423
935.5430	29.1330
937.4720	29.3278
939.4010	29.5036
941.3300	29.7023
943.2590	29.9384
945.1880	30.1513
947.1170	30.3539
949.0460	30.5995
950.9750	30.8771
952.9040	31.1364
954.8330	31.4064
956.7620	31.7162
958.6910	32.0094
960.6200	32.3017
962.5490	32.6352
964.4780	32.9613
966.4070	33.2804
968.3360	33.6581
970.2650	34.0766
972.1940	34.4965
974.1230	34.9450
976.0520	35.4482
977.9810	35.9711
979.9090	36.5356
981.8380	37.2157
983.7670	37.9809
985.6960	38.7919
987.6250	39.7294
989.5540	40.8241
991.4830	42.0648
993.4120	43.5494
995.3410	45.3715
997.2700	47.4276
999.1990	49.4833
1001.1280	51.2928
1003.0570	52.5968
1004.9860	53.3370
1006.9150	53.7096
1008.8440	53.8080
1010.7720	53.4960
1012.7010	52.6463
1014.6300	51.0673
1016.5590	48.4467
1018.4880	45.1639
1020.4170	42.5849
1022.3460	42.0360
1024.2750	43.8102
1026.2040	47.4115
1028.1330	52.2562
1030.0620	57.7652
1031.9910	63.2559
1033.9200	67.9686
1035.8490	71.4324
1037.7780	73.7837
1039.7070	75.3069
1041.6360	76.0213
1043.5650	76.0042
1045.4940	75.2920
1047.4230	73.5713
1049.3520	70.5118
1051.2810	66.3814
1053.2100	62.1453
1055.1390	58.8651
1057.0670	56.8753
1058.9960	55.8431
1060.9250	55.2826
1062.8540	54.9627
1064.7830	54.7066
1066.7120	54.1898
1068.6410	53.2528
1070.5700	52.1000
1072.4990	51.0458
1074.4280	50.2611
1076.3570	49.8575
1078.2860	49.7438
1080.2150	49.7723
1082.1440	49.9159
1084.0730	50.1498
1086.0020	50.3353
1087.9310	50.3671
1089.8600	50.2499
1091.7890	49.9801
1093.7180	49.4623
1095.6470	48.6683
1097.5760	47.5824
1099.5050	46.1154
1101.4340	44.3561
1103.3620	42.5932
1105.2910	40.9132
1107.2200	39.2118
1109.1490	37.5194
1111.0780	35.8642
1113.0070	34.2943
1114.9360	32.9882
1116.8650	32.1349
1118.7940	31.8368
1120.7230	32.1554
1122.6520	33.0795
1124.5810	34.4403
1126.5100	36.0819
1128.4390	37.8764
1130.3680	39.6669
1132.2970	41.3344
1134.2260	42.8285
1136.1550	44.2172
1138.0840	45.4679
1140.0130	46.5736
1141.9420	47.6085
1143.8710	48.5463
1145.8000	49.3290
1147.7290	50.0345
1149.6570	50.6918
1151.5860	51.3695
1153.5150	52.2325
1155.4440	53.3558
1157.3730	54.6175
1159.3020	55.8443
1161.2310	56.9422
1163.1600	57.8148
1165.0890	58.4864
1167.0180	59.0726
1168.9470	59.5728
1170.8760	59.9920
1172.8050	60.3963
1174.7340	60.7843
1176.6630	61.1268
1178.5920	61.4696
1180.5210	61.8773
1182.4500	62.2916
1184.3790	62.6600
1186.3080	63.0116
1188.2370	63.2877
1190.1660	63.4068
1192.0950	63.4608
1194.0240	63.4498
1195.9520	63.2501
1197.8810	62.9154
1199.8100	62.5191
1201.7390	62.0118
1203.6680	61.4095
1205.5970	60.8194
1207.5260	60.1978
1209.4550	59.5055
1211.3840	58.8497
1213.3130	58.2240
1215.2420	57.4964
1217.1710	56.6747
1219.1000	55.8072
1221.0290	54.7591
1222.9580	53.5162
1224.8870	52.2215
1226.8150	50.8407
1228.7440	49.3197
1230.6730	47.7675
1232.6020	46.2018
1234.5310	44.5697
1236.4600	42.9279
1238.3890	41.3087
1240.3180	39.6557
1242.2470	38.0084
1244.1760	36.4377
1246.1050	34.9413
1248.0340	33.5314
1249.9630	32.2641
1251.8920	31.1091
1253.8210	30.0158
1255.7500	28.9882
1257.6790	27.9802
1259.6080	26.9628
1261.5370	25.9284
1263.4660	24.8737
1265.3950	23.7729
1267.3240	22.6220
1269.2530	21.4448
1271.1820	20.2385
1273.1100	18.9873
1275.0390	17.7294
1276.9680	16.4807
1278.8970	15.1958
1280.8260	13.8842
1282.7550	12.5735
1284.6840	11.2583
1286.6130	9.9555
1288.5420	8.7295
1290.4710	7.6233
1292.4000	6.6728
1294.3290	5.9309
1296.2580	5.4250
1298.1870	5.1326
1300.1160	5.0229
1302.0450	5.0481
1303.9740	5.1614
1305.9030	5.3220
1307.8320	5.4983
1309.7610	5.6882
1311.6900	5.8799
1313.6190	6.0639
1315.5480	6.2554
1317.4770	6.4402
1319.4050	6.6221
1321.3340	6.7954
1323.2630	6.9653
1325.1920	7.1313
1327.1210	7.2890
1329.0500	7.4482
1330.9790	7.5947
1332.9080	7.7431
1334.8370	7.8904
1336.7660	8.0217
1338.6950	8.1433
1340.6240	8.2722
1342.5530	8.3989
1344.4820	8.5105
1346.4110	8.6223
1348.3400	8.7307
1350.2690	8.8242
1352.1980	8.9236
1354.1270	9.0254
1356.0560	9.1211
1357.9850	9.2148
1359.9140	9.3039
1361.8430	9.3889
1363.7720	9.4697
1365.7000	9.5473
1367.6290	9.6216
1369.5580	9.6968
1371.4870	9.7705
1373.4160	9.8391
1375.3450	9.9048
1377.2740	9.9743
1379.2030	10.0447
1381.1320	10.1130
1383.0610	10.1743
1384.9900	10.2444
1386.9190	10.3020
1388.8480	10.3559
1390.7770	10.4287
1392.7060	10.4941
1394.6350	10.5444
1396.5630	10.6093
1398.4920	10.6806
1400.4210	10.7448
1402.3500	10.7978
1404.2790	10.8542
1406.2080	10.9116
1408.1370	10.9631
1410.0660	11.0158
1411.9950	11.0749
1413.9240	11.1198
1415.8530	11.1565
1417.7820	11.1989
1419.7110	11.2361
1421.6400	11.2903
1423.5690	11.3432
1425.4980	11.3950
1427.4270	11.4360
1429.3560	11.4758
1431.2850	11.5215
1433.2140	11.5581
1435.1430	11.5796
1437.0720	11.6150
1439.0010	11.6596
1440.9300	11.6821
1442.8580	11.7153
1444.7870	11.7580
1446.7160	11.7861
1448.6450	11.8127
1450.5740	11.8664
1452.5030	11.9060
1454.4320	11.9245
1456.3610	11.9279
1458.2900	11.9748
1460.2190	12.0373
1462.1480	12.0815
1464.0770	12.1152
1466.0060	12.1523
1467.9350	12.2107
1469.8640	12.2500
1471.7930	12.2522
1473.7220	12.2744
1475.6510	12.3213
1477.5800	12.3532
1479.5090	12.3811
1481.4380	12.4057
1483.3670	12.4223
1485.2960	12.4238
1487.2250	12.4424
1489.1530	12.4653
1491.0820	12.4882
1493.0110	12.5219
1494.9400	12.5429
1496.8690	12.5547
1498.7980	12.5825
1500.7270	12.6132
1502.6560	12.6469
1504.5850	12.6423
1506.5140	12.6225
1508.4430	12.6684
1510.3720	12.7180
1512.3010	12.7326
1514.2300	12.7502
1516.1590	12.7573
1518.0880	12.7644
1520.0170	12.7729
1521.9460	12.7878
1523.8750	12.8264
1525.8040	12.8508
1527.7330	12.8833
1529.6620	12.9023
1531.5910	12.9040
1533.5200	12.9118
1535.4480	12.9423
1537.3770	12.9472
1539.3060	12.9260
1541.2350	12.9463
1543.1640	12.9831
1545.0930	13.0249
1547.0220	13.0610
1548.9510	13.0630
1550.8800	13.0744
1552.8090	13.0923
1554.7380	13.1118
1556.6670	13.1198
1558.5960	13.1008
1560.5250	13.1360
1562.4540	13.1960
1564.3830	13.2175
1566.3120	13.2424
1568.2410	13.2485
1570.1700	13.2570
1572.0990	13.2939
1574.0280	13.3059
1575.9570	13.2885
1577.8860	13.3303
1579.8150	13.3764
1581.7430	13.3835
1583.6720	13.4016
1585.6010	13.4262
1587.5300	13.4355
1589.4590	13.4394
1591.3880	13.4494
1593.3170	13.4550
1595.2460	13.4624
1597.1750	13.4841
1599.1040	13.5102
1601.0330	13.5156
1602.9620	13.5354
1604.8910	13.5576
1606.8200	13.5637
1608.7490	13.5766
1610.6780	13.5854
1612.6060	13.5993
1614.5350	13.5942
1616.4640	13.5732
1618.3930	13.5910
1620.3220	13.6179
1622.2510	13.6262
1624.1800	13.6416
1626.1090	13.6494
1628.0380	13.6535
1629.9670	13.6848
1631.8960	13.7041
1633.8250	13.6887
1635.7540	13.6845
1637.6830	13.7146
1639.6120	13.7287
1641.5410	13.7451
1643.4700	13.7551
1645.3990	13.7424
1647.3280	13.7451
1649.2570	13.7790
1651.1860	13.7583
1653.1150	13.7141
1655.0440	13.7683
1656.9730	13.8195
1658.9010	13.8191
1660.8300	13.8178
1662.7590	13.8271
1664.6880	13.8369
1666.6170	13.8425
1668.5460	13.8354
1670.4750	13.8335
1672.4040	13.8393
1674.3330	13.8401
1676.2620	13.8471
1678.1910	13.8632
1680.1200	13.8752
1682.0490	13.8679
1683.9780	13.8225
1685.9070	13.8369
1687.8360	13.8901
1689.7650	13.8974
1691.6940	13.8911
1693.6230	13.8825
1695.5520	13.8496
1697.4810	13.8562
1699.4100	13.8501
1701.3390	13.8515
1703.2680	13.8767
1705.1960	13.8654
1707.1250	13.8720
1709.0540	13.8737
1710.9830	13.8667
1712.9120	13.8593
1714.8410	13.8493
1716.7700	13.8237
1718.6990	13.8230
1720.6280	13.8684
1722.5570	13.8991
1724.4860	13.9148
1726.4150	13.9460
1728.3440	13.9756
1730.2730	14.0036
1732.2020	14.0278
1734.1310	14.0449
1736.0600	14.0905
1737.9890	14.1374
1739.9180	14.1679
1741.8470	14.1928
1743.7760	14.2050
1745.7050	14.2348
1747.6340	14.2531
1749.5630	14.2370
1751.4910	14.2141
1753.4200	14.2273
1755.3490	14.2309
1757.2780	14.2251
1759.2070	14.2202
1761.1360	14.2089
1763.0650	14.2038
1764.9940	14.2075
1766.9230	14.2048
1768.8520	14.1928
1770.7810	14.1865
1772.7100	14.1765
1774.6390	14.1772
1776.5680	14.1845
1778.4970	14.1880
1780.4260	14.1831
1782.3540	14.1887
1784.2830	14.1999
1786.2120	14.2048
1788.1410	14.2104
1790.0700	14.2075
1791.9990	14.2021
1793.9280	14.2070
1795.8570	14.2165
1797.7860	14.2160
1799.7150	14.2089
1801.6440	14.2114
1803.5730	14.2172
1805.5020	14.2185
1807.4310	14.2219
1809.3600	14.2331
1811.2890	14.2414
1813.2180	14.2392
1815.1470	14.2431
1817.0760	14.2443
1819.0050	14.2512
1820.9340	14.2561
1822.8630	14.2607
1824.7920	14.2583
1826.7210	14.2570
1828.6490	14.2644
1830.5780	14.2680
1832.5070	14.2707
1834.4360	14.2749
1836.3650	14.2790
1838.2940	14.2832
1840.2230	14.2854
1842.1520	14.2880
1844.0810	14.2766
1846.0100	14.2859
1847.9390	14.3022
1849.8680	14.3025
1851.7970	14.2971
1853.7260	14.3059
1855.6550	14.3171
1857.5840	14.3105
1859.5130	14.3193
1861.4420	14.3352
1863.3710	14.3371
1865.3000	14.3308
1867.2290	14.3313
1869.1580	14.3347
1871.0870	14.3462
1873.0160	14.3503
1874.9440	14.3525
1876.8730	14.3549
1878.8020	14.3593
1880.7310	14.3691
1882.6600	14.3742
1884.5890	14.3657
1886.5180	14.3632
1888.4470	14.3664
1890.3760	14.3735
1892.3050	14.3784
1894.2340	14.3750
1896.1630	14.3767
1898.0920	14.3847
1900.0210	14.3918
1901.9500	14.3906
1903.8790	14.3896
1905.8080	14.3957
1907.7370	14.4011
1909.6660	14.4028
1911.5950	14.4033
1913.5240	14.3986
1915.4530	14.4043
1917.3820	14.4052
1919.3110	14.4091
1921.2390	14.4162
1923.1680	14.4174
1925.0970	14.4250
1927.0260	14.4331
1928.9550	14.4267
1930.8840	14.4284
1932.8130	14.4282
1934.7420	14.4248
1936.6710	14.4284
1938.6000	14.4331
1940.5290	14.4323
1942.4580	14.4323
1944.3870	14.4392
1946.3160	14.4367
1948.2450	14.4343
1950.1740	14.4448
1952.1030	14.4509
1954.0320	14.4433
1955.9610	14.4453
1957.8900	14.4572
1959.8190	14.4558
1961.7480	14.4477
1963.6770	14.4480
1965.6060	14.4455
1967.5340	14.4431
1969.4630	14.4553
1971.3920	14.4572
1973.3210	14.4528
1975.2500	14.4575
1977.1790	14.4585
1979.1080	14.4626
1981.0370	14.4680
1982.9660	14.4736
1984.8950	14.4780
1986.8240	14.4838
1988.7530	14.4777
1990.6820	14.4731
1992.6110	14.4792
1994.5400	14.4907
1996.4690	14.5029
1998.3970	14.5056
2000.3260	14.5129
2002.2550	14.5161
2004.1840	14.5180
2006.1130	14.5139
2008.0420	14.5163
2009.9710	14.5305
2011.9000	14.5371
2013.8290	14.5417
2015.7580	14.5590
2017.6870	14.5744
2019.6160	14.5879
2021.5450	14.5940
2023.4740	14.5954
2025.4030	14.5918
2027.3320	14.5881
2029.2610	14.5810
2031.1900	14.5573
2033.1190	14.5339
2035.0480	14.5185
2036.9770	14.5039
2038.9060	14.4968
2040.8350	14.5009
2042.7640	14.5039
2044.6920	14.5019
2046.6210	14.5083
2048.5500	14.5131
2050.4790	14.5129
2052.4080	14.5163
2054.3370	14.5244
2056.2660	14.5305
2058.1950	14.5459
2060.1240	14.5683
2062.0530	14.5942
2063.9820	14.6057
2065.9110	14.6196
2067.8400	14.6298
2069.7690	14.6313
2071.6980	14.6284
2073.6270	14.6274
2075.5560	14.6198
2077.4850	14.5986
2079.4140	14.5747
2081.3430	14.5503
2083.2720	14.5373
2085.2010	14.5288
2087.1300	14.5146
2089.0590	14.5053
2090.9870	14.5066
2092.9160	14.5151
2094.8450	14.5073
2096.7740	14.5009
2098.7030	14.5056
2100.6320	14.5175
2102.5610	14.5234
2104.4900	14.5346
2106.4190	14.5485
2108.3480	14.5568
2110.2770	14.5654
2112.2060	14.5879
2114.1350	14.5998
2116.0640	14.6132
2117.9930	14.6411
2119.9220	14.6594
2121.8510	14.6740
2123.7800	14.6931
2125.7090	14.7072
2127.6380	14.7216
2129.5670	14.7387
2131.4960	14.7526
2133.4250	14.7714
2135.3540	14.7866
2137.2820	14.8066
2139.2110	14.8166
2141.1400	14.8154
2143.0690	14.8208
2144.9980	14.8330
2146.9270	14.8293
2148.8560	14.8374
2150.7850	14.8535
2152.7140	14.8686
2154.6430	14.8872
2156.5720	14.9184
2158.5010	14.9585
2160.4300	14.9870
2162.3590	15.0146
2164.2880	15.0537
2166.2170	15.0874
2168.1460	15.1240
2170.0750	15.1630
2172.0040	15.1960
2173.9330	15.2314
2175.8620	15.2646
2177.7910	15.2944
2179.7200	15.3266
2181.6490	15.3559
2183.5770	15.3938
2185.5060	15.4279
2187.4350	15.4631
2189.3640	15.4921
2191.2930	15.5195
2193.2220	15.5605
2195.1510	15.6088
2197.0800	15.6504
2199.0090	15.6831
2200.9380	15.7241
2202.8670	15.7649
2204.7960	15.8051
2206.7250	15.8542
2208.6540	15.9082
2210.5830	15.9663
2212.5120	16.0268
2214.4400	16.0957
2216.3690	16.1648
2218.2980	16.2392
2220.2270	16.3237
2222.1560	16.4023
2224.0850	16.4658
2226.0140	16.5429
2227.9430	16.6362
2229.8720	16.7165
2231.8010	16.7793
2233.7300	16.8564
2235.6590	16.9379
2237.5880	17.0131
2239.5170	17.0703
2241.4460	17.1184
2243.3750	17.1584
2245.3040	17.1919
2247.2330	17.2221
2249.1620	17.2475
2251.0910	17.2666
2253.0200	17.2895
2254.9490	17.3032
2256.8780	17.3283
2258.8070	17.3547
2260.7350	17.3820
2262.6640	17.4108
2264.5930	17.4394
2266.5220	17.4751
2268.4510	17.5039
2270.3800	17.5410
2272.3090	17.5908
2274.2380	17.6276
2276.1670	17.6679
2278.0960	17.7114
2280.0250	17.7475
2281.9540	17.7954
2283.8830	17.8466
2285.8120	17.8891
2287.7410	17.9365
2289.6700	17.9877
2291.5990	18.0300
2293.5280	18.0703
2295.4570	18.1137
2297.3860	18.1626
2299.3150	18.2116
2301.2440	18.2651
2303.1730	18.3378
2305.1020	18.4042
2307.0300	18.4682
2308.9590	18.5410
2310.8880	18.6240
2312.8170	18.7067
2314.7460	18.7985
2316.6750	18.8857
2318.6040	18.9584
2320.5330	19.0405
2322.4620	19.1396
2324.3910	19.2229
2326.3200	19.3051
2328.2490	19.3925
2330.1780	19.4638
2332.1070	19.5380
2334.0360	19.6113
2335.9650	19.6906
2337.8940	19.7587
2339.8230	19.8137
2341.7520	19.8801
2343.6810	19.9455
2345.6100	20.0029
2347.5390	20.0551
2349.4680	20.1093
2351.3970	20.1625
2353.3250	20.2121
2355.2540	20.2582
2357.1830	20.3051
2359.1120	20.3564
2361.0410	20.4113
2362.9700	20.4689
2364.8990	20.5170
2366.8280	20.5700
2368.7570	20.6328
2370.6860	20.6877
2372.6150	20.7338
2374.5440	20.7822
2376.4730	20.8300
2378.4020	20.8754
2380.3310	20.9086
2382.2600	20.9484
2384.1880	20.9807
2386.1170	20.9995
2388.0460	21.0136
2389.9750	21.0361
2391.9040	21.0581
2393.8330	21.0808
2395.7620	21.1010
2397.6910	21.1203
2399.6200	21.1479
2401.5490	21.1594
2403.4780	21.1625
2405.4070	21.1809
2407.3360	21.1994
2409.2650	21.2062
2411.1940	21.2167
2413.1230	21.2182
2415.0520	21.2158
2416.9810	21.2216
2418.9100	21.2373
2420.8390	21.2407
2422.7680	21.2446
2424.6970	21.2487
2426.6260	21.2539
2428.5550	21.2612
2430.4830	21.2741
2432.4120	21.2797
2434.3410	21.2785
2436.2700	21.2846
2438.1990	21.2939
2440.1280	21.3061
2442.0570	21.3120
2443.9860	21.2973
2445.9150	21.2998
2447.8440	21.3037
2449.7730	21.3015
2451.7020	21.3178
2453.6310	21.3234
2455.5600	21.3207
2457.4890	21.3244
2459.4180	21.3222
2461.3470	21.3205
2463.2760	21.3178
2465.2050	21.3173
2467.1340	21.3041
2469.0630	21.3054
2470.9920	21.3193
2472.9210	21.3198
2474.8500	21.3095
2476.7780	21.3085
2478.7070	21.3105
2480.6360	21.3041
2482.5650	21.3022
2484.4940	21.3027
2486.4230	21.2934
2488.3520	21.2812
2490.2810	21.2817
2492.2100	21.2831
2494.1390	21.2788
2496.0680	21.2790
2497.9970	21.2788
2499.9260	21.2768
2501.8550	21.2695
2503.7840	21.2614
2505.7130	21.2626
2507.6420	21.2582
2509.5710	21.2451
2511.5000	21.2307
2513.4290	21.2336
2515.3580	21.2382
2517.2870	21.2275
2519.2160	21.2206
2521.1450	21.2236
2523.0730	21.2248
2525.0020	21.2211
2526.9310	21.2226
2528.8600	21.2277
2530.7890	21.2329
2532.7180	21.2216
2534.6470	21.2163
2536.5760	21.2123
2538.5050	21.2143
2540.4340	21.2241
2542.3630	21.2270
2544.2920	21.2260
2546.2210	21.2304
2548.1500	21.2407
2550.0790	21.2358
2552.0080	21.2221
2553.9370	21.2241
2555.8660	21.2392
2557.7950	21.2333
2559.7240	21.2355
2561.6530	21.2392
2563.5820	21.2382
2565.5110	21.2326
2567.4400	21.2343
2569.3680	21.2397
2571.2970	21.2321
2573.2260	21.2226
2575.1550	21.2187
2577.0840	21.2109
2579.0130	21.2072
2580.9420	21.2021
2582.8710	21.1967
2584.8000	21.1894
2586.7290	21.1887
2588.6580	21.1918
2590.5870	21.1884
2592.5160	21.1865
2594.4450	21.1874
2596.3740	21.1850
2598.3030	21.1850
2600.2310	21.1850
2602.1600	21.1791
2604.0890	21.1760
2606.0180	21.1794
2607.9470	21.1728
2609.8760	21.1572
2611.8050	21.1464
2613.7340	21.1445
2615.6630	21.1442
2617.5920	21.1518
2619.5210	21.1494
2621.4500	21.1513
2623.3790	21.1464
2625.3080	21.1479
2627.2370	21.1513
2629.1660	21.1474
2631.0950	21.1408
2633.0240	21.1357
2634.9530	21.1340
2636.8820	21.1386
2638.8110	21.1354
2640.7400	21.1245
2642.6690	21.1235
2644.5980	21.1308
2646.5260	21.1254
2648.4550	21.1206
2650.3840	21.1293
2652.3130	21.1337
2654.2420	21.1298
2656.1710	21.1215
2658.1000	21.1210
2660.0290	21.1105
2661.9580	21.1035
2663.8870	21.1171
2665.8160	21.1220
2667.7450	21.1225
2669.6740	21.1310
2671.6030	21.1298
2673.5320	21.1176
2675.4610	21.1049
2677.3900	21.1074
2679.3190	21.1005
2681.2480	21.0869
2683.1770	21.0971
2685.1060	21.0917
2687.0350	21.0629
2688.9640	21.0642
2690.8930	21.0683
2692.8210	21.0610
2694.7500	21.0488
2696.6790	21.0551
2698.6080	21.0615
2700.5370	21.0512
2702.4660	21.0483
2704.3950	21.0463
2706.3240	21.0361
2708.2530	21.0214
2710.1820	21.0117
2712.1110	21.0002
2714.0400	21.0024
2715.9690	21.0034
2717.8980	20.9931
2719.8270	20.9916
2721.7560	20.9877
2723.6850	20.9770
2725.6140	20.9682
2727.5430	20.9667
2729.4720	20.9741
2731.4010	20.9794
2733.3300	20.9716
2735.2590	20.9672
2737.1880	20.9692
2739.1160	20.9675
2741.0450	20.9604
2742.9740	20.9389
2744.9030	20.9321
2746.8320	20.9389
2748.7610	20.9350
2750.6900	20.9257
2752.6190	20.9267
2754.5480	20.9272
2756.4770	20.9081
2758.4060	20.8925
2760.3350	20.8969
2762.2640	20.9028
2764.1930	20.8915
2766.1220	20.8793
2768.0510	20.8818
2769.9790	20.8798
2771.9080	20.8691
2773.8370	20.8569
2775.7660	20.8530
2777.6950	20.8530
2779.6240	20.8510
2781.5530	20.8334
2783.4820	20.8134
2785.4110	20.8115
2787.3400	20.8081
2789.2690	20.7846
2791.1980	20.7831
2793.1270	20.7841
2795.0560	20.7636
2796.9850	20.7460
2798.9140	20.7446
2800.8430	20.7338
2802.7720	20.7167
2804.7010	20.6938
2806.6300	20.6826
2808.5590	20.6694
2810.4880	20.6567
2812.4170	20.6459
2814.3460	20.6249
2816.2740	20.6074
2818.2030	20.5908
2820.1320	20.5605
2822.0610	20.5351
2823.9900	20.5170
2825.9190	20.4926
2827.8480	20.4721
2829.7770	20.4467
2831.7060	20.4233
2833.6350	20.3920
2835.5640	20.3417
2837.4930	20.3039
2839.4220	20.2636
2841.3510	20.2001
2843.2800	20.1123
2845.2090	20.0087
2847.1380	19.9033
2849.0670	19.8286
2850.9960	19.8071
2852.9250	19.8239
2854.8540	19.8620
2856.7830	19.9216
2858.7120	19.9802
2860.6410	20.0495
2862.5690	20.1115
2864.4980	20.1335
2866.4270	20.1347
2868.3560	20.1274
2870.2850	20.1223
2872.2140	20.1196
2874.1430	20.1306
2876.0720	20.1369
2878.0010	20.1281
2879.9300	20.1157
2881.8590	20.0947
2883.7880	20.0812
2885.7170	20.0534
2887.6460	20.0107
2889.5750	19.9694
2891.5040	19.9360
2893.4330	19.9028
2895.3620	19.8581
2897.2910	19.8264
2899.2200	19.7976
2901.1490	19.7470
2903.0780	19.6987
2905.0070	19.6528
2906.9360	19.6005
2908.8640	19.5529
2910.7930	19.4804
2912.7220	19.4030
2914.6510	19.3232
2916.5800	19.2739
2918.5090	19.2419
2920.4380	19.2255
2922.3670	19.2319
2924.2960	19.2517
2926.2250	19.2827
2928.1540	19.3283
2930.0830	19.3710
2932.0120	19.4152
2933.9410	19.4665
2935.8700	19.5021
2937.7990	19.5319
2939.7280	19.5664
2941.6570	19.5917
2943.5860	19.5969
2945.5150	19.5976
2947.4440	19.5786
2949.3730	19.5424
2951.3020	19.5166
2953.2310	19.4978
2955.1590	19.4848
2957.0880	19.4951
2959.0170	19.5153
2960.9460	19.5429
2962.8750	19.5524
2964.8040	19.5690
2966.7330	19.5939
2968.6620	19.6147
2970.5910	19.6271
2972.5200	19.6281
2974.4490	19.6093
2976.3780	19.5886
2978.3070	19.5822
2980.2360	19.5615
2982.1650	19.5354
2984.0940	19.5097
2986.0220	19.4973
2987.9510	19.4797
2989.8800	19.4538
2991.8090	19.4304
2993.7380	19.3994
2995.6670	19.3752
2997.5960	19.3608
2999.5250	19.3264
3001.4540	19.2941
3003.3830	19.2597
3005.3120	19.2416
3007.2410	19.2087
3009.1700	19.1708
3011.0990	19.1508
3013.0280	19.1279
3014.9570	19.1145
3016.8860	19.1052
3018.8150	19.0739
3020.7440	19.0451
3022.6730	19.0258
3024.6020	19.0161
3026.5310	19.0039
3028.4600	18.9692
3030.3890	18.9458
3032.3170	18.9252
3034.2460	18.9062
3036.1750	18.8945
3038.1040	18.8833
3040.0330	18.8571
3041.9620	18.8464
3043.8910	18.8269
3045.8200	18.8049
3047.7490	18.7922
3049.6780	18.7690
3051.6070	18.7653
3053.5360	18.7570
3055.4650	18.7399
3057.3940	18.7236
3059.3230	18.7124
3061.2520	18.6958
3063.1810	18.6796
3065.1100	18.6633
3067.0390	18.6484
3068.9680	18.6391
3070.8970	18.6391
3072.8260	18.6191
3074.7550	18.6093
3076.6840	18.6025
3078.6120	18.5808
3080.5410	18.5717
3082.4700	18.5659
3084.3990	18.5542
3086.3280	18.5402
3088.2570	18.5268
3090.1860	18.5156
3092.1150	18.5034
3094.0440	18.4890
3095.9730	18.4785
3097.9020	18.4541
3099.8310	18.4372
3101.7600	18.4301
3103.6890	18.4228
3105.6180	18.4243
3107.5470	18.4135
3109.4760	18.3940
3111.4050	18.3891
3113.3340	18.3696
3115.2630	18.3637
3117.1920	18.3671
3119.1210	18.3498
3121.0500	18.3247
3122.9790	18.3125
3124.9070	18.3012
3126.8360	18.2990
3128.7650	18.2856
3130.6940	18.2609
3132.6230	18.2446
3134.5520	18.2382
3136.4810	18.2255
3138.4100	18.2197
3140.3390	18.2104
3142.2680	18.1928
3144.1970	18.1914
3146.1260	18.1848
3148.0550	18.1604
3149.9840	18.1479
3151.9130	18.1447
3153.8420	18.1193
3155.7710	18.1044
3157.7000	18.1015
3159.6290	18.0937
3161.5580	18.0725
3163.4870	18.0527
3165.4160	18.0478
3167.3450	18.0236
3169.2740	18.0063
3171.2020	17.9953
3173.1310	17.9760
3175.0600	17.9565
3176.9890	17.9318
3178.9180	17.9240
3180.8470	17.9160
3182.7760	17.8960
3184.7050	17.8823
3186.6340	17.8615
3188.5630	17.8398
3190.4920	17.8168
3192.4210	17.8012
3194.3500	17.7900
3196.2790	17.7749
3198.2080	17.7600
3200.1370	17.7402
3202.0650	17.7373
3203.9940	17.7368
3205.9230	17.7251
3207.8520	17.7236
3209.7810	17.7036
3211.7100	17.6796
3213.6390	17.6650
3215.5680	17.6660
3217.4970	17.6567
3219.4260	17.6301
3221.3550	17.6106
3223.2840	17.5832
3225.2130	17.5673
3227.1420	17.5502
3229.0710	17.5354
3231.0000	17.5268
3232.9290	17.5051
3234.8580	17.4990
3236.7870	17.4755
3238.7160	17.4553
3240.6450	17.4482
3242.5740	17.4326
3244.5030	17.4191
3246.4320	17.4023
3248.3600	17.3801
3250.2890	17.3547
3252.2180	17.3449
3254.1470	17.3291
3256.0760	17.3056
3258.0050	17.3007
3259.9340	17.3010
3261.8630	17.2861
3263.7920	17.2678
3265.7210	17.2375
3267.6500	17.2143
3269.5790	17.2119
3271.5080	17.2004
3273.4370	17.1848
3275.3660	17.1679
3277.2950	17.1584
3279.2240	17.1430
3281.1530	17.1467
3283.0820	17.1259
3285.0110	17.1008
3286.9400	17.0966
3288.8690	17.0913
3290.7980	17.0776
3292.7270	17.0654
3294.6550	17.0566
3296.5840	17.0451
3298.5130	17.0444
3300.4420	17.0227
3302.3710	16.9946
3304.3000	16.9741
3306.2290	16.9653
3308.1580	16.9453
3310.0870	16.9248
3312.0160	16.9143
3313.9450	16.9006
3315.8740	16.8772
3317.8030	16.8625
3319.7320	16.8469
3321.6610	16.8247
3323.5900	16.7919
3325.5190	16.7685
3327.4480	16.7609
3329.3770	16.7548
3331.3060	16.7363
3333.2350	16.7065
3335.1640	16.6926
3337.0930	16.6770
3339.0220	16.6679
3340.9500	16.6428
3342.8790	16.6069
3344.8080	16.5900
3346.7370	16.5781
3348.6660	16.5590
3350.5950	16.5322
3352.5240	16.5166
3354.4530	16.5012
3356.3820	16.4914
3358.3110	16.4834
3360.2400	16.4777
3362.1690	16.4670
3364.0980	16.4560
3366.0270	16.4423
3367.9560	16.4345
3369.8850	16.4211
3371.8130	16.4084
3373.7420	16.3847
3375.6710	16.3674
3377.6000	16.3547
3379.5290	16.3559
3381.4580	16.3437
3383.3870	16.3203
3385.3160	16.3081
3387.2450	16.2971
3389.1740	16.2880
3391.1030	16.2690
3393.0320	16.2453
3394.9610	16.2346
3396.8900	16.2053
3398.8190	16.1789
3400.7480	16.1691
3402.6770	16.1460
3404.6060	16.1230
3406.5350	16.1103
3408.4640	16.0937
3410.3930	16.0747
3412.3220	16.0605
3414.2510	16.0395
3416.1800	16.0127
3418.1080	15.9775
3420.0370	15.9545
3421.9660	15.9377
3423.8950	15.9296
3425.8240	15.9067
3427.7530	15.8811
3429.6820	15.8584
3431.6110	15.8349
3433.5400	15.8164
3435.4690	15.7978
3437.3980	15.7773
3439.3270	15.7617
3441.2560	15.7382
3443.1850	15.7170
3445.1140	15.6887
3447.0430	15.6613
3448.9720	15.6369
3450.9010	15.6005
3452.8300	15.5683
3454.7590	15.5312
3456.6880	15.5019
3458.6170	15.4738
3460.5460	15.4502
3462.4750	15.4028
3464.4030	15.3371
3466.3320	15.2822
3468.2610	15.2114
3470.1900	15.1313
3472.1190	15.0537
3474.0480	14.9914
3475.9770	14.9384
3477.9060	14.8808
3479.8350	14.8256
3481.7640	14.8098
3483.6930	14.8369
3485.6220	14.8740
3487.5510	14.9336
3489.4800	14.9904
3491.4090	15.0412
3493.3380	15.0686
3495.2670	15.0608
3497.1960	15.0168
3499.1250	14.9301
3501.0540	14.7695
3502.9830	14.5102
3504.9120	14.1543
3506.8410	13.8381
3508.7700	13.8127
3510.6980	14.0957
3512.6270	14.4575
3514.5560	14.7353
3516.4850	14.9336
3518.4140	15.0976
3520.3430	15.2324
3522.2720	15.3496
3524.2010	15.4531
3526.1300	15.5422
3528.0590	15.6115
3529.9880	15.6689
3531.9170	15.7082
3533.8460	15.7412
3535.7750	15.7636
3537.7040	15.7846
3539.6330	15.8100
3541.5620	15.8283
3543.4910	15.8310
3545.4200	15.8349
3547.3490	15.8537
3549.2780	15.8720
3551.2070	15.8742
3553.1360	15.8886
3555.0650	15.8964
3556.9930	15.8837
3558.9220	15.8706
3560.8510	15.8879
3562.7800	15.8957
3564.7090	15.8762
3566.6380	15.8598
3568.5670	15.8452
3570.4960	15.8459
3572.4250	15.8535
3574.3540	15.8603
3576.2830	15.8759
3578.2120	15.8586
3580.1410	15.8479
3582.0700	15.8476
3583.9990	15.8388
3585.9280	15.8088
3587.8560	15.7912
3589.7850	15.7795
3591.7140	15.7522
3593.6430	15.7275
3595.5720	15.7070
3597.5010	15.6933
3599.4300	15.6884
3601.3590	15.6770
3603.2880	15.6601
3605.2170	15.6545
3607.1460	15.6643
3609.0750	15.6584
3611.0040	15.6601
3612.9330	15.6787
3614.8620	15.6777
3616.7910	15.6701
3618.7200	15.6572
3620.6490	15.6474
3622.5780	15.6816
3624.5070	15.7221
3626.4360	15.7270
3628.3650	15.7148
3630.2940	15.7490
3632.2230	15.8003
3634.1510	15.8110
3636.0800	15.8193
3638.0090	15.8266
3639.9380	15.8466
3641.8670	15.8715
3643.7960	15.8823
3645.7250	15.8813
3647.6540	15.8515
3649.5830	15.8491
3651.5120	15.8608
3653.4410	15.8808
3655.3700	15.8750
3657.2990	15.8574
3659.2280	15.8798
3661.1570	15.9013
3663.0860	15.9082
3665.0150	15.8901
3666.9440	15.8872
3668.8730	15.8808
3670.8020	15.8696
3672.7310	15.8769
3674.6600	15.8501
3676.5890	15.8295
3678.5180	15.8759
3680.4460	15.8784
3682.3750	15.8759
3684.3040	15.8711
3686.2330	15.8310
3688.1620	15.7929
3690.0910	15.8007
3692.0200	15.8125
3693.9490	15.8032
3695.8780	15.8022
3697.8070	15.8051
3699.7360	15.8129
3701.6650	15.8169
3703.5940	15.8281
3705.5230	15.8212
3707.4520	15.8393
3709.3810	15.8300
3711.3100	15.8066
3713.2390	15.8193
3715.1680	15.8359
3717.0970	15.8271
3719.0260	15.8149
3720.9550	15.8017
3722.8840	15.8076
3724.8130	15.8003
3726.7410	15.7768
3728.6700	15.7802
3730.5990	15.7578
3732.5280	15.7314
3734.4570	15.7172
3736.3860	15.6884
3738.3150	15.6855
3740.2440	15.7060
3742.1730	15.6938
3744.1020	15.6235
3746.0310	15.6142
3747.9600	15.6298
3749.8890	15.5835
3751.8180	15.5429
3753.7470	15.5493
3755.6760	15.5639
3757.6040	15.5449
3759.5330	15.5239
3761.4620	15.5166
3763.3910	15.4980
3765.3200	15.4560
3767.2490	15.4511
3769.1780	15.4550
3771.1070	15.4350
3773.0360	15.4243
3774.9650	15.4248
3776.8940	15.4067
3778.8230	15.3833
3780.7520	15.3754
3782.6810	15.3505
3784.6100	15.3208
3786.5390	15.2910
3788.4680	15.3042
3790.3970	15.3217
3792.3260	15.3095
3794.2550	15.3012
3796.1840	15.2695
3798.1130	15.2216
3800.0420	15.1704
3801.9710	15.1518
3803.8990	15.1508
3805.8280	15.1552
3807.7570	15.1455
3809.6860	15.1474
3811.6150	15.1289
3813.5440	15.1152
3815.4730	15.0590
3817.4020	15.0420
3819.3310	15.0478
3821.2600	15.0297
3823.1890	15.0004
3825.1180	14.9873
3827.0470	14.9795
3828.9760	14.9785
3830.9050	14.9648
3832.8340	14.9375
3834.7630	14.9082
3836.6920	14.8740
3838.6210	14.8603
3840.5500	14.8711
3842.4790	14.8603
3844.4080	14.8271
3846.3370	14.8051
3848.2660	14.8027
3850.1940	14.7968
3852.1230	14.7509
3854.0520	14.7216
3855.9810	14.7373
3857.9100	14.7480
3859.8390	14.7187
3861.7680	14.7226
3863.6970	14.7148
3865.6260	14.6601
3867.5550	14.6240
3869.4840	14.6137
3871.4130	14.6269
3873.3420	14.6386
3875.2710	14.6020
3877.2000	14.6054
3879.1290	14.5844
3881.0580	14.5512
3882.9870	14.5537
3884.9160	14.5551
3886.8450	14.5468
3888.7740	14.5254
3890.7030	14.5009
3892.6320	14.4834
3894.5610	14.4580
3896.4890	14.4531
3898.4180	14.4223
3900.3470	14.3974
3902.2760	14.3969
3904.2050	14.3945
3906.1340	14.3779
3908.0630	14.3720
3909.9920	14.3657
3911.9210	14.3603
3913.8500	14.3437
3915.7790	14.3149
3917.7080	14.2988
3919.6370	14.2837
3921.5660	14.2627
3923.4950	14.2509
3925.4240	14.2407
3927.3530	14.2617
3929.2820	14.2441
3931.2110	14.1899
3933.1400	14.1743
3935.0690	14.1709
3936.9980	14.1484
3938.9270	14.1338
3940.8560	14.1313
3942.7840	14.1113
3944.7130	14.1172
3946.6420	14.1152
3948.5710	14.1035
3950.5000	14.0825
3952.4290	14.0410
3954.3580	14.0180
3956.2870	13.9965
3958.2160	14.0195
3960.1450	14.0224
3962.0740	14.0024
3964.0030	13.9868
3965.9320	13.9785
3967.8610	13.9648
3969.7900	13.9404
3971.7190	13.9145
3973.6470	13.8911
3975.5760	13.8828
3977.5050	13.8652
3979.4340	13.8554
3981.3630	13.8696
3983.2920	13.8481
3985.2210	13.8515
3987.1500	13.8447
3989.0790	13.8349
3991.0080	13.8339
3992.9370	13.8154
3994.8660	13.7871
3996.7950	13.7656
3998.7240	13.7622
4000.6530	13.7544
4002.5820	13.7519
4004.5110	13.7275
4006.4400	13.6982
4008.3690	13.6919
4010.2980	13.7148
4012.2270	13.6958
4014.1560	13.6508
4016.0850	13.6240
4018.0140	13.6172
4019.9420	13.6367
4021.8710	13.6250
4023.8000	13.6235
4025.7290	13.5869
4027.6580	13.5683
4029.5870	13.5556
4031.5160	13.5449
4033.4450	13.5410
4035.3740	13.5146
4037.3030	13.5136
4039.2320	13.5200
4041.1610	13.4961
4043.0900	13.4751
4045.0190	13.4716
4046.9480	13.4594
4048.8770	13.4365
4050.8060	13.4297
4052.7350	13.3886
4054.6640	13.3579
4056.5930	13.3423
4058.5220	13.3637
4060.4510	13.3574
4062.3800	13.3325
4064.3090	13.3183
4066.2370	13.3232
4068.1660	13.3364
4070.0950	13.2988
4072.0240	13.2993
4073.9530	13.3027
4075.8820	13.3007
4077.8110	13.2993
4079.7400	13.2798
4081.6690	13.2505
4083.5980	13.2451
4085.5270	13.2505
4087.4560	13.2153
4089.3850	13.1899
4091.3140	13.1757
4093.2430	13.1606
4095.1720	13.1533
4097.1010	13.1587
4099.0300	13.1425
4100.9590	13.1294
4102.8880	13.1372
4104.8170	13.1450
4106.7460	13.1118
4108.6750	13.0923
4110.6040	13.0800
4112.5320	13.0610
4114.4610	13.0605
4116.3900	13.0493
4118.3190	13.0532
4120.2480	13.0532
4122.1770	13.0224
4124.1060	12.9926
4126.0350	12.9775
4127.9640	12.9673
4129.8930	12.9555
4131.8220	12.9912
4133.7510	12.9907
4135.6800	12.9355
4137.6090	12.9262
4139.5380	12.9340
4141.4670	12.9199
4143.3960	12.9082
4145.3250	12.9126
4147.2540	12.8984
4149.1830	12.8774
4151.1120	12.8847
4153.0410	12.8847
4154.9700	12.8691
4156.8990	12.8735
4158.8270	12.8593
4160.7560	12.8340
4162.6850	12.8261
4164.6140	12.8242
4166.5430	12.7968
4168.4720	12.8188
4170.4010	12.7988
4172.3300	12.7793
4174.2590	12.7754
4176.1880	12.7597
4178.1170	12.7368
4180.0460	12.7407
4181.9750	12.7148
4183.9040	12.7090
4185.8330	12.6958
4187.7620	12.6797
4189.6900	12.6958
4191.6190	12.7153
4193.5480	12.7055
4195.4770	12.6782
4197.4060	12.6621
4199.3350	12.6806
4201.2640	12.6665
4203.1930	12.6504
4205.1220	12.6406
4207.0510	12.6313
4208.9800	12.6054
4210.9090	12.5923
4212.8380	12.5981
4214.7670	12.6333
4216.6960	12.6250
4218.6250	12.5937
4220.5540	12.5727
4222.4830	12.5630
4224.4120	12.5800
4226.3410	12.5996
4228.2700	12.5830
4230.1990	12.5498
4232.1280	12.5244
4234.0570	12.5215
4235.9850	12.5156
4237.9140	12.5254
4239.8430	12.5263
4241.7720	12.5107
4243.7010	12.5088
4245.6300	12.5429
4247.5590	12.5752
4249.4880	12.5136
4251.4170	12.4873
4253.3460	12.5156
4255.2750	12.4951
4257.2040	12.4697
4259.1330	12.4560
4261.0620	12.4863
4262.9910	12.4814
4264.9200	12.4443
4266.8490	12.4472
4268.7780	12.4414
4270.7070	12.4316
4272.6360	12.4453
4274.5650	12.4384
4276.4940	12.4433
4278.4230	12.4131
4280.3520	12.4101
4282.2800	12.3906
4284.2090	12.3701
4286.1380	12.3603
4288.0670	12.4131
4289.9960	12.4179
4291.9250	12.3935
4293.8540	12.3681
4295.7830	12.3789
4297.7120	12.3720
4299.6410	12.3789
4301.5700	12.3691
4303.4990	12.3642
4305.4280	12.3711
4307.3570	12.3466
4309.2860	12.3320
4311.2150	12.3242
4313.1440	12.3388
4315.0730	12.3320
4317.0020	12.3466
4318.9310	12.3672
4320.8600	12.3418
4322.7890	12.3408
4324.7180	12.3242
4326.6470	12.2968
4328.5750	12.3222
4330.5040	12.3486
4332.4330	12.3203
4334.3620	12.2949
4336.2910	12.3076
4338.2200	12.3174
4340.1490	12.3525
4342.0780	12.3252
4344.0070	12.3174
4345.9360	12.3183
4347.8650	12.3174
4349.7940	12.2881
4351.7230	12.2705
4353.6520	12.3105
4355.5810	12.3105
4357.5100	12.2773
4359.4380	12.2773
4361.3670	12.2500
4363.2960	12.2783
4365.2250	12.2900
4367.1540	12.2539
4369.0830	12.2148
4371.0120	12.2295
4372.9410	12.2197
4374.8700	12.1953
4376.7990	12.2353
4378.7280	12.2656
4380.6570	12.2363
4382.5860	12.2129
4384.5150	12.2265
4386.4440	12.2324
4388.3730	12.2187
4390.3020	12.2031
4392.2310	12.1963
4394.1600	12.2500
4396.0890	12.2441
4398.0180	12.2256
4399.9470	12.2402
4401.8760	12.2617
4403.8050	12.2715
4405.7330	12.2402
4407.6620	12.1963
4409.5910	12.2197
4411.5200	12.2285
4413.4490	12.2168
4415.3780	12.2236
4417.3070	12.2187
4419.2360	12.1992
4421.1650	12.1816
4423.0940	12.1875
4425.0230	12.2158
4426.9520	12.1982
4428.8810	12.1621
4430.8100	12.1924
4432.7390	12.2343
4434.6680	12.2343
4436.5970	12.2070
4438.5260	12.1758
4440.4550	12.1631
4442.3840	12.1738
4444.3130	12.1953
4446.2420	12.1992
4448.1710	12.1728
4450.1000	12.1728
4452.0280	12.1689
4453.9570	12.1621
4455.8860	12.1211
4457.8150	12.1172
4459.7440	12.1220
4461.6730	12.1347
4463.6020	12.1806
4465.5310	12.1914
4467.4600	12.1992
4469.3890	12.1953
4471.3180	12.2070
4473.2470	12.2402
4475.1760	12.2158
4477.1050	12.2031
4479.0340	12.2187
4480.9630	12.2002
4482.8920	12.2070
4484.8210	12.1611
4486.7500	12.1621
4488.6790	12.1797
4490.6080	12.1533
4492.5370	12.1543
4494.4660	12.1699
4496.3950	12.1455
4498.3230	12.1582
4500.2520	12.1855
4502.1810	12.1884
4504.1100	12.1689
4506.0390	12.2109
4507.9680	12.1992
4509.8970	12.1621
4511.8260	12.1806
4513.7550	12.1924
4515.6840	12.1914
4517.6130	12.2168
4519.5420	12.2187
4521.4710	12.2060
4523.4000	12.1924
4525.3290	12.1758
4527.2580	12.2011
4529.1870	12.2168
4531.1160	12.2314
4533.0450	12.1728
4534.9740	12.1660
4536.9030	12.1679
4538.8320	12.1289
4540.7610	12.1347
4542.6900	12.2090
4544.6180	12.1963
4546.5470	12.1611
4548.4760	12.1494
4550.4050	12.1924
4552.3340	12.2011
4554.2630	12.1963
4556.1920	12.1914
4558.1210	12.1640
4560.0500	12.1406
4561.9790	12.1504
4563.9080	12.1445
4565.8370	12.1367
4567.7660	12.1875
4569.6950	12.2109
4571.6240	12.1689
4573.5530	12.1386
4575.4810	12.1679
4577.4100	12.1679
4579.3390	12.1845
4581.2680	12.2226
4583.1970	12.1855
4585.1260	12.1533
4587.0550	12.1621
4588.9840	12.1738
4590.9130	12.1650
4592.8420	12.1543
4594.7710	12.1504
4596.7000	12.1650
4598.6290	12.2011
4600.5580	12.1689
4602.4870	12.1455
4604.4160	12.1640
4606.3450	12.1611
4608.2740	12.1963
4610.2030	12.2265
4612.1320	12.2314
4614.0610	12.2402
4615.9900	12.2119
4617.9190	12.2119
4619.8480	12.1689
4621.7760	12.1836
4623.7050	12.2236
4625.6340	12.2343
4627.5630	12.1914
4629.4920	12.1933
4631.4210	12.2509
4633.3500	12.2851
4635.2790	12.2080
4637.2080	12.1816
4639.1370	12.2109
4641.0660	12.2343
4642.9950	12.2041
4644.9240	12.2031
4646.8530	12.1767
4648.7820	12.1718
4650.7110	12.1884
4652.6400	12.1621
4654.5690	12.1689
4656.4980	12.1738
4658.4270	12.1689
4660.3560	12.1211
4662.2850	12.1465
4664.2140	12.2011
4666.1430	12.2148
4668.0710	12.2363
4670.0000	12.2715
4671.9290	12.2509
4673.8580	12.2304
4675.7870	12.2226
4677.7160	12.2285
4679.6450	12.2666
4681.5740	12.2773
4683.5030	12.2539
4685.4320	12.2187
4687.3610	12.2119
4689.2900	12.2002
4691.2190	12.2080
4693.1480	12.2080
4695.0770	12.2158
4697.0060	12.2304
4698.9350	12.2500
4700.8640	12.2705
4702.7930	12.2431
4704.7220	12.2392
4706.6510	12.2588
4708.5800	12.2549
4710.5090	12.2500
4712.4380	12.2812
4714.3660	12.2968
4716.2950	12.2822
4718.2240	12.2851
4720.1530	12.2695
4722.0820	12.3242
4724.0110	12.3252
4725.9400	12.2812
4727.8690	12.2695
4729.7980	12.2900
4731.7270	12.3252
4733.6560	12.3369
4735.5850	12.2793
4737.5140	12.2597
4739.4430	12.2675
4741.3720	12.3086
4743.3010	12.3056
4745.2290	12.2978
4747.1580	12.3437
4749.0870	12.3574
4751.0160	12.3681
4752.9450	12.3613
4754.8740	12.2871
4756.8030	12.2734
4758.7320	12.3056
4760.6610	12.3095
4762.5900	12.2422
4764.5190	12.2500
4766.4480	12.2822
4768.3770	12.2705
4770.3060	12.2715
4772.2350	12.3359
4774.1640	12.3691
4776.0930	12.3730
4778.0220	12.3828
4779.9510	12.3799
4781.8800	12.3691
4783.8090	12.3632
4785.7380	12.3320
4787.6670	12.3408
4789.5960	12.3398
4791.5240	12.3564
4793.4530	12.3379
4795.3820	12.2978
4797.3110	12.2890
4799.2400	12.3291
4801.1690	12.3252
4803.0980	12.3183
4805.0270	12.3203
4806.9560	12.2968
4808.8850	12.3252


