Name: Serpentine Marble 
Type:  Rocks
Class:  Metamorphic 
Subclass:  Marble 
Particle Size:  0-75 Micrometer
File Name:  marble2.doc
Owner:  JHU
Wavelength Range:  All
Origin:  Sample No. 460, The Hunt and Salisbury Collection at the U.S. 
Geological Survey, Denver, Co.
Description: This sample consists of coarse-grained anhedral carbonate with 
numerous regions of serpentine (possibly brucite--MgOH2, at least in part) as an 
alteration/reaction of the carbonate.  There are scattered subhedra of 
monticellite, tremolite, and phlogopite, with a few grains of idocrase (?) also 
noted in this section.

Measurement:  Directional (10 Degree) Hemispherical Reflectance
First Column:  X
Second Column:  Y  
X Units:  Wavelength (micrometers)
Y Units:  Reflectance (percent)
First X Value:  14.9831
Last X Value:  0.4
Number of X Values:  2868
Additional Information:  None

14.983	5.1976
14.940	5.3276
14.897	5.4662
14.854	5.6118
14.812	5.7518
14.770	5.8702
14.728	5.9595
14.686	6.0310
14.645	6.1106
14.603	6.2242
14.562	6.3862
14.521	6.5956
14.481	6.8371
14.441	7.0862
14.400	7.3103
14.361	7.4708
14.321	7.5206
14.281	7.4022
14.242	7.0630
14.203	6.4769
14.164	5.6696
14.126	4.7304
14.087	3.8044
14.049	3.0542
14.011	2.6071
13.973	2.5076
13.936	2.7014
13.899	3.0620
13.861	3.4440
13.824	3.7450
13.788	3.9442
13.751	4.1009
13.715	4.3176
13.679	4.6866
13.643	5.2481
13.607	5.9770
13.571	6.7978
13.536	7.6179
13.500	8.3622
13.465	8.9905
13.430	9.4994
13.396	9.9091
13.361	10.248
13.327	10.542
13.293	10.804
13.259	11.041
13.225	11.256
13.191	11.447
13.158	11.614
13.124	11.758
13.091	11.881
13.058	11.989
13.026	12.086
12.993	12.179
12.960	12.272
12.928	12.367
12.896	12.465
12.864	12.565
12.832	12.672
12.800	12.785
12.769	12.910
12.737	13.045
12.706	13.187
12.675	13.330
12.644	13.464
12.614	13.582
12.583	13.682
12.552	13.767
12.522	13.841
12.492	13.912
12.462	13.986
12.432	14.066
12.402	14.153
12.373	14.250
12.343	14.361
12.314	14.490
12.285	14.642
12.256	14.817
12.227	15.013
12.198	15.225
12.169	15.440
12.141	15.653
12.113	15.863
12.084	16.075
12.056	16.298
12.028	16.530
12.000	16.746
11.973	16.885
11.945	16.852
11.918	16.561
11.890	15.979
11.863	15.158
11.836	14.242
11.809	13.431
11.782	12.914
11.755	12.788
11.729	13.011
11.702	13.420
11.676	13.782
11.650	13.864
11.624	13.502
11.598	12.644
11.572	11.355
11.546	9.7814
11.520	8.1098
11.495	6.5323
11.469	5.2052
11.444	4.2262
11.419	3.6339
11.394	3.4251
11.369	3.5736
11.344	4.0460
11.319	4.8071
11.294	5.8134
11.270	6.9951
11.245	8.2497
11.221	9.4511
11.197	10.475
11.173	11.228
11.149	11.668
11.125	11.809
11.101	11.713
11.077	11.459
11.054	11.123
11.030	10.762
11.007	10.408
10.983	10.071
10.960	9.7478
10.937	9.4302
10.914	9.1098
10.891	8.7809
10.868	8.4411
10.846	8.0908
10.823	7.7346
10.800	7.3799
10.778	7.0351
10.755	6.7097
10.733	6.4120
10.711	6.1466
10.689	5.9147
10.667	5.7141
10.645	5.5401
10.623	5.3876
10.602	5.2516
10.580	5.1294
10.558	5.0191
10.537	4.9206
10.516	4.8336
10.494	4.7572
10.473	4.6892
10.452	4.6276
10.431	4.5710
10.410	4.5201
10.389	4.4772
10.368	4.4465
10.348	4.4299
10.327	4.4277
10.306	4.4365
10.286	4.4510
10.266	4.4654
10.245	4.4775
10.225	4.4877
10.205	4.4993
10.185	4.5158
10.165	4.5400
10.145	4.5727
10.125	4.6125
10.106	4.6575
10.086	4.7062
10.066	4.7586
10.047	4.8138
10.027	4.8715
10.008	4.9307
9.9887	4.9902
9.9695	5.0491
9.9504	5.1086
9.9313	5.1709
9.9123	5.2395
9.8934	5.3184
9.8746	5.4093
9.8558	5.5121
9.8371	5.6239
9.8185	5.7414
9.7999	5.8610
9.7814	5.9810
9.7630	6.1001
9.7447	6.2185
9.7264	6.3355
9.7082	6.4497
9.6900	6.5584
9.6719	6.6585
9.6539	6.7485
9.6360	6.8281
9.6181	6.8984
9.6003	6.9626
9.5825	7.0240
9.5649	7.0851
9.5472	7.1478
9.5297	7.2127
9.5122	7.2790
9.4948	7.3444
9.4774	7.4069
9.4601	7.4635
9.4429	7.5111
9.4257	7.5485
9.4086	7.5767
9.3916	7.5980
9.3746	7.6165
9.3577	7.6352
9.3408	7.6555
9.3240	7.6752
9.3073	7.6904
9.2906	7.6986
9.2740	7.7034
9.2574	7.7155
9.2409	7.7510
9.2245	7.8282
9.2081	7.9620
9.1918	8.1609
9.1755	8.4271
9.1593	8.7624
9.1431	9.1726
9.1270	9.6701
9.1110	10.272
9.0950	10.990
9.0791	11.827
9.0632	12.765
9.0474	13.766
9.0316	14.781
9.0159	15.757
9.0003	16.651
8.9847	17.434
8.9691	18.096
8.9536	18.643
8.9382	19.092
8.9228	19.465
8.9075	19.786
8.8922	20.075
8.8770	20.343
8.8618	20.592
8.8467	20.816
8.8316	21.004
8.8166	21.142
8.8016	21.220
8.7867	21.234
8.7718	21.186
8.7570	21.087
8.7422	20.945
8.7275	20.770
8.7129	20.564
8.6982	20.322
8.6837	20.037
8.6692	19.700
8.6547	19.315
8.6403	18.898
8.6259	18.477
8.6116	18.089
8.5973	17.768
8.5830	17.531
8.5688	17.375
8.5547	17.279
8.5406	17.212
8.5266	17.143
8.5126	17.059
8.4986	16.961
8.4847	16.866
8.4708	16.795
8.4570	16.765
8.4432	16.788
8.4295	16.865
8.4158	16.997
8.4022	17.179
8.3886	17.404
8.3750	17.665
8.3615	17.945
8.3481	18.226
8.3347	18.489
8.3213	18.720
8.3079	18.911
8.2946	19.063
8.2814	19.181
8.2682	19.271
8.2550	19.337
8.2419	19.373
8.2288	19.373
8.2158	19.327
8.2028	19.234
8.1898	19.098
8.1769	18.935
8.1640	18.764
8.1512	18.604
8.1384	18.467
8.1256	18.357
8.1129	18.274
8.1002	18.215
8.0876	18.179
8.0750	18.170
8.0624	18.194
8.0499	18.253
8.0374	18.343
8.0250	18.453
8.0126	18.563
8.0002	18.654
7.9879	18.706
7.9756	18.707
7.9634	18.653
7.9512	18.554
7.9390	18.426
7.9268	18.291
7.9147	18.173
7.9027	18.090
7.8906	18.044
7.8786	18.027
7.8667	18.015
7.8548	17.986
7.8429	17.918
7.8310	17.804
7.8192	17.652
7.8075	17.478
7.7957	17.302
7.7840	17.139
7.7723	16.993
7.7607	16.857
7.7491	16.719
7.7375	16.566
7.7260	16.385
7.7145	16.171
7.7031	15.927
7.6916	15.656
7.6802	15.366
7.6689	15.067
7.6575	14.767
7.6462	14.474
7.6350	14.194
7.6238	13.936
7.6126	13.702
7.6014	13.494
7.5903	13.310
7.5792	13.146
7.5681	12.997
7.5571	12.857
7.5461	12.720
7.5351	12.580
7.5242	12.435
7.5133	12.280
7.5024	12.115
7.4916	11.938
7.4807	11.750
7.4700	11.551
7.4592	11.344
7.4485	11.131
7.4378	10.914
7.4272	10.696
7.4165	10.474
7.4059	10.245
7.3954	10.003
7.3848	9.7417
7.3743	9.4553
7.3639	9.1416
7.3534	8.8017
7.3430	8.4411
7.3326	8.0690
7.3223	7.6953
7.3119	7.3304
7.3016	6.9828
7.2914	6.6578
7.2811	6.3573
7.2709	6.0805
7.2607	5.8250
7.2506	5.5877
7.2404	5.3667
7.2303	5.1621
7.2203	4.9741
7.2102	4.8048
7.2002	4.6553
7.1902	4.5263
7.1803	4.4190
7.1703	4.3356
7.1604	4.2795
7.1506	4.2542
7.1407	4.2615
7.1309	4.2994
7.1211	4.3607
7.1113	4.4337
7.1016	4.5049
7.0919	4.5637
7.0822	4.6028
7.0725	4.6215
7.0629	4.6224
7.0533	4.6115
7.0437	4.5930
7.0341	4.5698
7.0246	4.5428
7.0151	4.5111
7.0056	4.4739
6.9962	4.4306
6.9867	4.3820
6.9773	4.3318
6.9679	4.2838
6.9586	4.2433
6.9493	4.2137
6.9400	4.1966
6.9307	4.1900
6.9214	4.1897
6.9122	4.1912
6.9030	4.1914
6.8938	4.1905
6.8847	4.1905
6.8755	4.1947
6.8664	4.2056
6.8573	4.2236
6.8483	4.2473
6.8393	4.2738
6.8302	4.3008
6.8213	4.3269
6.8123	4.3520
6.8034	4.3766
6.7944	4.4024
6.7855	4.4311
6.7767	4.4640
6.7678	4.5014
6.7590	4.5438
6.7502	4.5902
6.7414	4.6402
6.7327	4.6925
6.7239	4.7477
6.7152	4.8064
6.7065	4.8706
6.6979	4.9419
6.6892	5.0203
6.6806	5.1050
6.6720	5.1943
6.6634	5.2871
6.6549	5.3833
6.6464	5.4847
6.6378	5.5943
6.6294	5.7139
6.6209	5.8446
6.6124	5.9853
6.6040	6.1340
6.5956	6.2891
6.5872	6.4506
6.5789	6.6197
6.5705	6.7978
6.5622	6.9856
6.5539	7.1814
6.5456	7.3825
6.5374	7.5854
6.5292	7.7879
6.5209	7.9916
6.5128	8.2012
6.5046	8.4247
6.4964	8.6708
6.4883	8.9448
6.4802	9.2443
6.4721	9.5581
6.4640	9.8655
6.4560	10.142
6.4480	10.364
6.4399	10.518
6.4320	10.603
6.4240	10.628
6.4160	10.613
6.4081	10.576
6.4002	10.527
6.3923	10.467
6.3844	10.387
6.3766	10.265
6.3687	10.086
6.3609	9.8354
6.3531	9.5129
6.3454	9.1304
6.3376	8.7108
6.3299	8.2836
6.3221	7.8784
6.3144	7.5208
6.3068	7.2267
6.2991	7.0017
6.2914	6.8416
6.2838	6.7334
6.2762	6.6595
6.2686	6.6022
6.2611	6.5477
6.2535	6.4890
6.2460	6.4248
6.2385	6.3604
6.2310	6.3012
6.2235	6.2524
6.2160	6.2155
6.2086	6.1897
6.2011	6.1731
6.1937	6.1643
6.1863	6.1619
6.1790	6.1660
6.1716	6.1757
6.1643	6.1908
6.1570	6.2100
6.1496	6.2320
6.1424	6.2564
6.1351	6.2841
6.1278	6.3166
6.1206	6.3564
6.1134	6.4063
6.1062	6.4696
6.0990	6.5475
6.0918	6.6401
6.0847	6.7462
6.0776	6.8639
6.0704	6.9915
6.0633	7.1291
6.0563	7.2766
6.0492	7.4355
6.0421	7.6051
6.0351	7.7832
6.0281	7.9653
6.0211	8.1467
6.0141	8.3236
6.0071	8.4939
6.0002	8.6575
5.9932	8.8164
5.9863	8.9732
5.9794	9.1295
5.9725	9.2870
5.9657	9.4480
5.9588	9.6152
5.9520	9.7919
5.9451	9.9804
5.9383	10.181
5.9315	10.389
5.9247	10.600
5.9180	10.804
5.9112	10.995
5.9045	11.170
5.8978	11.333
5.8911	11.488
5.8844	11.641
5.8777	11.796
5.8711	11.949
5.8644	12.094
5.8578	12.220
5.8512	12.323
5.8446	12.399
5.8380	12.454
5.8314	12.496
5.8249	12.534
5.8184	12.577
5.8118	12.626
5.8053	12.675
5.7988	12.716
5.7923	12.743
5.7859	12.755
5.7794	12.757
5.7730	12.763
5.7666	12.789
5.7602	12.848
5.7538	12.950
5.7474	13.092
5.7410	13.270
5.7347	13.473
5.7283	13.689
5.7220	13.910
5.7157	14.129
5.7094	14.346
5.7031	14.563
5.6969	14.785
5.6906	15.018
5.6844	15.265
5.6782	15.528
5.6719	15.801
5.6657	16.073
5.6596	16.326
5.6534	16.541
5.6472	16.693
5.6411	16.749
5.6349	16.668
5.6288	16.397
5.6227	15.877
5.6166	15.056
5.6106	13.911
5.6045	12.467
5.5984	10.808
5.5924	9.0691
5.5864	7.4204
5.5804	6.0383
5.5744	5.0733
5.5684	4.6245
5.5624	4.7252
5.5564	5.3383
5.5505	6.3630
5.5445	7.6510
5.5386	9.0338
5.5327	10.356
5.5268	11.502
5.5209	12.418
5.5151	13.111
5.5092	13.639
5.5033	14.093
5.4975	14.566
5.4917	15.141
5.4859	15.875
5.4801	16.795
5.4743	17.896
5.4685	19.143
5.4628	20.484
5.4570	21.852
5.4513	23.184
5.4455	24.430
5.4398	25.559
5.4341	26.566
5.4284	27.456
5.4228	28.245
5.4171	28.952
5.4114	29.592
5.4058	30.175
5.4002	30.711
5.3945	31.211
5.3889	31.683
5.3833	32.136
5.3778	32.576
5.3722	33.008
5.3666	33.432
5.3611	33.852
5.3555	34.268
5.3500	34.681
5.3445	35.091
5.3390	35.497
5.3335	35.895
5.3280	36.284
5.3225	36.659
5.3171	37.021
5.3116	37.369
5.3062	37.705
5.3008	38.032
5.2954	38.351
5.2900	38.663
5.2846	38.968
5.2792	39.267
5.2738	39.559
5.2684	39.844
5.2631	40.123
5.2578	40.394
5.2524	40.659
5.2471	40.915
5.2418	41.160
5.2365	41.391
5.2312	41.607
5.2260	41.807
5.2207	41.992
5.2154	42.165
5.2102	42.328
5.2050	42.483
5.1998	42.629
5.1945	42.764
5.1893	42.888
5.1842	42.997
5.1790	43.091
5.1738	43.169
5.1686	43.235
5.1635	43.290
5.1584	43.340
5.1532	43.392
5.1481	43.448
5.1430	43.506
5.1379	43.548
5.1328	43.547
5.1277	43.472
5.1227	43.303
5.1176	43.052
5.1126	42.760
5.1075	42.496
5.1025	42.329
5.0975	42.304
5.0925	42.422
5.0875	42.637
5.0825	42.884
5.0775	43.100
5.0726	43.253
5.0676	43.342
5.0627	43.393
5.0577	43.437
5.0528	43.496
5.0479	43.571
5.0430	43.651
5.0380	43.724
5.0332	43.781
5.0283	43.822
5.0234	43.854
5.0185	43.887
5.0137	43.929
5.0088	43.985
5.0040	44.055
4.9992	44.142
4.9944	44.246
4.9896	44.366
4.9848	44.499
4.9800	44.642
4.9752	44.789
4.9704	44.933
4.9657	45.067
4.9609	45.187
4.9562	45.289
4.9514	45.375
4.9467	45.448
4.9420	45.512
4.9373	45.575
4.9326	45.642
4.9279	45.722
4.9232	45.819
4.9186	45.936
4.9139	46.072
4.9092	46.224
4.9046	46.386
4.9000	46.550
4.8953	46.709
4.8907	46.857
4.8861	46.992
4.8815	47.111
4.8769	47.213
4.8723	47.299
4.8678	47.367
4.8632	47.415
4.8586	47.444
4.8541	47.451
4.8495	47.439
4.8450	47.408
4.8405	47.361
4.8360	47.302
4.8315	47.237
4.8270	47.177
4.8225	47.130
4.8180	47.106
4.8135	47.115
4.8090	47.159
4.8046	47.238
4.8001	47.349
4.7957	47.482
4.7913	47.631
4.7868	47.785
4.7824	47.938
4.7780	48.081
4.7736	48.209
4.7692	48.319
4.7648	48.407
4.7605	48.472
4.7561	48.514
4.7517	48.530
4.7474	48.520
4.7431	48.475
4.7387	48.386
4.7344	48.239
4.7301	48.018
4.7258	47.706
4.7215	47.296
4.7172	46.790
4.7129	46.200
4.7086	45.551
4.7043	44.875
4.7000	44.207
4.6958	43.576
4.6915	43.004
4.6873	42.507
4.6831	42.091
4.6788	41.756
4.6746	41.505
4.6704	41.343
4.6662	41.282
4.6620	41.332
4.6578	41.505
4.6536	41.801
4.6495	42.206
4.6453	42.692
4.6411	43.222
4.6370	43.757
4.6328	44.265
4.6287	44.725
4.6246	45.131
4.6205	45.489
4.6163	45.809
4.6122	46.105
4.6081	46.387
4.6040	46.659
4.6000	46.926
4.5959	47.185
4.5918	47.434
4.5877	47.669
4.5837	47.888
4.5796	48.087
4.5756	48.269
4.5716	48.435
4.5675	48.589
4.5635	48.735
4.5595	48.874
4.5555	49.008
4.5515	49.134
4.5475	49.251
4.5435	49.362
4.5395	49.466
4.5356	49.567
4.5316	49.669
4.5276	49.775
4.5237	49.888
4.5197	50.007
4.5158	50.135
4.5119	50.272
4.5080	50.418
4.5040	50.573
4.5001	50.736
4.4962	50.904
4.4923	51.075
4.4884	51.241
4.4846	51.399
4.4807	51.542
4.4768	51.666
4.4730	51.769
4.4691	51.851
4.4652	51.914
4.4614	51.964
4.4576	52.008
4.4537	52.055
4.4499	52.112
4.4461	52.185
4.4423	52.277
4.4385	52.386
4.4347	52.511
4.4309	52.646
4.4271	52.787
4.4233	52.932
4.4196	53.077
4.4158	53.220
4.4120	53.359
4.4083	53.492
4.4045	53.617
4.4008	53.734
4.3971	53.841
4.3934	53.940
4.3896	54.030
4.3859	54.113
4.3822	54.188
4.3785	54.254
4.3748	54.307
4.3711	54.343
4.3674	54.357
4.3638	54.342
4.3601	54.298
4.3564	54.224
4.3528	54.128
4.3491	54.019
4.3455	53.908
4.3418	53.805
4.3382	53.715
4.3346	53.641
4.3310	53.583
4.3273	53.538
4.3237	53.505
4.3201	53.482
4.3165	53.470
4.3129	53.469
4.3094	53.479
4.3058	53.497
4.3022	53.520
4.2986	53.544
4.2951	53.564
4.2915	53.579
4.2880	53.587
4.2844	53.591
4.2809	53.594
4.2774	53.601
4.2738	53.616
4.2703	53.643
4.2668	53.681
4.2633	53.727
4.2598	53.773
4.2563	53.810
4.2528	53.834
4.2493	53.841
4.2458	53.835
4.2424	53.821
4.2389	53.805
4.2354	53.792
4.2320	53.786
4.2285	53.788
4.2251	53.798
4.2216	53.815
4.2182	53.838
4.2148	53.864
4.2113	53.890
4.2079	53.911
4.2045	53.921
4.2011	53.916
4.1977	53.895
4.1943	53.859
4.1909	53.809
4.1875	53.750
4.1841	53.682
4.1808	53.607
4.1774	53.523
4.1740	53.428
4.1707	53.320
4.1673	53.198
4.1640	53.064
4.1606	52.922
4.1573	52.777
4.1540	52.629
4.1506	52.482
4.1473	52.333
4.1440	52.179
4.1407	52.017
4.1374	51.844
4.1341	51.659
4.1308	51.462
4.1275	51.253
4.1242	51.033
4.1209	50.802
4.1177	50.559
4.1144	50.304
4.1111	50.038
4.1079	49.761
4.1046	49.475
4.1014	49.178
4.0981	48.867
4.0949	48.539
4.0917	48.185
4.0884	47.800
4.0852	47.378
4.0820	46.917
4.0788	46.420
4.0756	45.892
4.0724	45.337
4.0692	44.758
4.0660	44.148
4.0628	43.491
4.0596	42.759
4.0565	41.918
4.0533	40.937
4.0501	39.795
4.0470	38.488
4.0438	37.034
4.0406	35.471
4.0375	33.847
4.0344	32.213
4.0312	30.610
4.0281	29.062
4.0250	27.574
4.0218	26.129
4.0187	24.703
4.0156	23.267
4.0125	21.802
4.0094	20.308
4.0063	18.800
4.0032	17.316
4.0001	15.897
3.9970	14.590
3.9940	13.430
3.9909	12.443
3.9878	11.639
3.9847	11.015
3.9817	10.559
3.9786	10.253
3.9756	10.080
3.9725	10.023
3.9695	10.074
3.9665	10.230
3.9634	10.496
3.9604	10.881
3.9574	11.392
3.9544	12.032
3.9513	12.787
3.9483	13.627
3.9453	14.506
3.9423	15.368
3.9393	16.155
3.9363	16.830
3.9333	17.376
3.9304	17.804
3.9274	18.147
3.9244	18.446
3.9214	18.742
3.9185	19.061
3.9155	19.414
3.9126	19.799
3.9096	20.202
3.9067	20.603
3.9037	20.984
3.9008	21.325
3.8979	21.616
3.8949	21.852
3.8920	22.039
3.8891	22.190
3.8862	22.317
3.8833	22.435
3.8804	22.554
3.8775	22.681
3.8746	22.822
3.8717	22.983
3.8688	23.173
3.8659	23.400
3.8630	23.672
3.8601	23.990
3.8573	24.349
3.8544	24.739
3.8515	25.148
3.8487	25.566
3.8458	25.992
3.8430	26.429
3.8401	26.884
3.8373	27.364
3.8344	27.865
3.8316	28.375
3.8288	28.875
3.8259	29.340
3.8231	29.756
3.8203	30.122
3.8175	30.458
3.8147	30.804
3.8119	31.211
3.8091	31.731
3.8063	32.404
3.8035	33.244
3.8007	34.242
3.7979	35.362
3.7951	36.555
3.7924	37.765
3.7896	38.943
3.7868	40.053
3.7841	41.075
3.7813	42.004
3.7785	42.847
3.7758	43.620
3.7730	44.340
3.7703	45.027
3.7676	45.690
3.7648	46.340
3.7621	46.977
3.7594	47.599
3.7566	48.201
3.7539	48.777
3.7512	49.321
3.7485	49.825
3.7458	50.285
3.7431	50.695
3.7404	51.050
3.7377	51.350
3.7350	51.597
3.7323	51.794
3.7296	51.950
3.7269	52.074
3.7242	52.174
3.7216	52.257
3.7189	52.327
3.7162	52.389
3.7136	52.440
3.7109	52.479
3.7083	52.505
3.7056	52.519
3.7030	52.523
3.7003	52.526
3.6977	52.534
3.6950	52.556
3.6924	52.594
3.6898	52.646
3.6872	52.704
3.6845	52.759
3.6819	52.799
3.6793	52.819
3.6767	52.818
3.6741	52.796
3.6715	52.760
3.6689	52.717
3.6663	52.671
3.6637	52.625
3.6611	52.582
3.6585	52.541
3.6560	52.499
3.6534	52.454
3.6508	52.403
3.6482	52.342
3.6457	52.273
3.6431	52.197
3.6406	52.116
3.6380	52.035
3.6355	51.956
3.6329	51.878
3.6304	51.800
3.6278	51.719
3.6253	51.631
3.6227	51.536
3.6202	51.433
3.6177	51.323
3.6152	51.208
3.6127	51.086
3.6101	50.955
3.6076	50.814
3.6051	50.661
3.6026	50.491
3.6001	50.304
3.5976	50.097
3.5951	49.864
3.5926	49.601
3.5901	49.300
3.5876	48.954
3.5852	48.564
3.5827	48.139
3.5802	47.699
3.5777	47.269
3.5753	46.880
3.5728	46.549
3.5704	46.283
3.5679	46.066
3.5654	45.872
3.5630	45.668
3.5605	45.425
3.5581	45.125
3.5557	44.769
3.5532	44.362
3.5508	43.916
3.5484	43.437
3.5459	42.920
3.5435	42.350
3.5411	41.704
3.5387	40.954
3.5363	40.074
3.5338	39.042
3.5314	37.852
3.5290	36.511
3.5266	35.048
3.5242	33.511
3.5218	31.961
3.5195	30.465
3.5171	29.076
3.5147	27.834
3.5123	26.747
3.5099	25.804
3.5075	24.972
3.5052	24.217
3.5028	23.504
3.5004	22.810
3.4981	22.124
3.4957	21.443
3.4934	20.772
3.4910	20.118
3.4887	19.495
3.4863	18.920
3.4840	18.420
3.4816	18.033
3.4793	17.805
3.4770	17.777
3.4746	17.977
3.4723	18.401
3.4700	19.012
3.4677	19.741
3.4653	20.503
3.4630	21.214
3.4607	21.814
3.4584	22.274
3.4561	22.604
3.4538	22.834
3.4515	23.009
3.4492	23.171
3.4469	23.351
3.4446	23.562
3.4423	23.806
3.4400	24.073
3.4378	24.347
3.4355	24.611
3.4332	24.850
3.4309	25.054
3.4287	25.217
3.4264	25.340
3.4241	25.428
3.4219	25.487
3.4196	25.523
3.4174	25.539
3.4151	25.538
3.4129	25.520
3.4106	25.486
3.4084	25.441
3.4061	25.389
3.4039	25.337
3.4017	25.288
3.3994	25.244
3.3972	25.203
3.3950	25.162
3.3928	25.115
3.3906	25.061
3.3883	25.003
3.3861	24.945
3.3839	24.893
3.3817	24.849
3.3795	24.811
3.3773	24.769
3.3751	24.709
3.3729	24.615
3.3707	24.470
3.3685	24.258
3.3663	23.969
3.3641	23.597
3.3620	23.151
3.3598	22.653
3.3576	22.149
3.3554	21.707
3.3533	21.414
3.3511	21.361
3.3489	21.622
3.3468	22.234
3.3446	23.182
3.3425	24.395
3.3403	25.760
3.3382	27.147
3.3360	28.436
3.3339	29.540
3.3317	30.415
3.3296	31.059
3.3274	31.498
3.3253	31.769
3.3232	31.913
3.3210	31.965
3.3189	31.953
3.3168	31.907
3.3147	31.860
3.3126	31.851
3.3104	31.923
3.3083	32.115
3.3062	32.459
3.3041	32.965
3.3020	33.621
3.2999	34.389
3.2978	35.211
3.2957	36.023
3.2936	36.765
3.2915	37.392
3.2894	37.885
3.2874	38.245
3.2853	38.493
3.2832	38.654
3.2811	38.759
3.2790	38.828
3.2770	38.877
3.2749	38.913
3.2728	38.941
3.2708	38.960
3.2687	38.971
3.2666	38.974
3.2646	38.972
3.2625	38.967
3.2605	38.962
3.2584	38.958
3.2564	38.951
3.2543	38.940
3.2523	38.921
3.2503	38.890
3.2482	38.849
3.2462	38.799
3.2442	38.743
3.2421	38.681
3.2401	38.616
3.2381	38.548
3.2361	38.480
3.2340	38.413
3.2320	38.348
3.2300	38.289
3.2280	38.235
3.2260	38.185
3.2240	38.139
3.2220	38.095
3.2200	38.050
3.2180	38.000
3.2160	37.942
3.2140	37.875
3.2120	37.799
3.2100	37.717
3.2080	37.630
3.2060	37.540
3.2040	37.449
3.2021	37.355
3.2001	37.259
3.1981	37.158
3.1961	37.055
3.1942	36.949
3.1922	36.840
3.1902	36.727
3.1883	36.610
3.1863	36.489
3.1844	36.366
3.1824	36.242
3.1805	36.119
3.1785	35.998
3.1766	35.876
3.1746	35.751
3.1727	35.617
3.1707	35.473
3.1688	35.317
3.1669	35.152
3.1649	34.980
3.1630	34.807
3.1611	34.634
3.1591	34.467
3.1572	34.306
3.1553	34.154
3.1534	34.010
3.1515	33.873
3.1495	33.743
3.1476	33.614
3.1457	33.486
3.1438	33.358
3.1419	33.230
3.1400	33.106
3.1381	32.987
3.1362	32.876
3.1343	32.771
3.1324	32.670
3.1305	32.566
3.1286	32.454
3.1268	32.331
3.1249	32.195
3.1230	32.050
3.1211	31.901
3.1192	31.754
3.1174	31.615
3.1155	31.489
3.1136	31.376
3.1117	31.274
3.1099	31.180
3.1080	31.088
3.1061	30.996
3.1043	30.900
3.1024	30.802
3.1006	30.705
3.0987	30.616
3.0969	30.539
3.0950	30.474
3.0932	30.421
3.0913	30.372
3.0895	30.321
3.0876	30.266
3.0858	30.204
3.0840	30.139
3.0821	30.072
3.0803	30.006
3.0785	29.940
3.0766	29.874
3.0748	29.806
3.0730	29.736
3.0712	29.663
3.0694	29.587
3.0675	29.506
3.0657	29.422
3.0639	29.333
3.0621	29.241
3.0603	29.148
3.0585	29.055
3.0567	28.963
3.0549	28.873
3.0531	28.784
3.0513	28.695
3.0495	28.603
3.0477	28.507
3.0459	28.410
3.0441	28.312
3.0423	28.215
3.0406	28.122
3.0388	28.032
3.0370	27.943
3.0352	27.854
3.0334	27.762
3.0317	27.667
3.0299	27.570
3.0281	27.474
3.0264	27.380
3.0246	27.287
3.0228	27.193
3.0211	27.096
3.0193	26.994
3.0176	26.887
3.0158	26.778
3.0140	26.669
3.0123	26.562
3.0105	26.460
3.0088	26.360
3.0070	26.260
3.0053	26.159
3.0036	26.055
3.0018	25.948
3.0001	25.838
2.9984	25.729
2.9966	25.622
2.9949	25.517
2.9932	25.415
2.9914	25.316
2.9897	25.216
2.9880	25.115
2.9863	25.011
2.9845	24.907
2.9828	24.804
2.9811	24.702
2.9794	24.605
2.9777	24.510
2.9760	24.415
2.9743	24.319
2.9726	24.220
2.9709	24.118
2.9692	24.014
2.9675	23.910
2.9658	23.806
2.9641	23.704
2.9624	23.603
2.9607	23.503
2.9590	23.404
2.9573	23.306
2.9556	23.209
2.9539	23.116
2.9523	23.028
2.9506	22.945
2.9489	22.867
2.9472	22.794
2.9455	22.722
2.9439	22.650
2.9422	22.577
2.9405	22.505
2.9389	22.433
2.9372	22.365
2.9355	22.303
2.9339	22.247
2.9322	22.197
2.9306	22.151
2.9289	22.107
2.9272	22.063
2.9256	22.019
2.9239	21.977
2.9223	21.939
2.9207	21.908
2.9190	21.886
2.9174	21.871
2.9157	21.861
2.9141	21.853
2.9124	21.845
2.9108	21.835
2.9092	21.822
2.9075	21.807
2.9059	21.791
2.9043	21.777
2.9027	21.765
2.9010	21.756
2.8994	21.749
2.8978	21.743
2.8962	21.739
2.8946	21.734
2.8929	21.729
2.8913	21.726
2.8897	21.724
2.8881	21.726
2.8865	21.730
2.8849	21.738
2.8833	21.746
2.8817	21.753
2.8801	21.756
2.8785	21.753
2.8769	21.743
2.8753	21.726
2.8737	21.704
2.8721	21.678
2.8705	21.650
2.8689	21.623
2.8673	21.594
2.8658	21.564
2.8642	21.532
2.8626	21.498
2.8610	21.461
2.8594	21.422
2.8579	21.383
2.8563	21.342
2.8547	21.300
2.8531	21.256
2.8516	21.208
2.8500	21.156
2.8484	21.098
2.8469	21.035
2.8453	20.965
2.8437	20.892
2.8422	20.815
2.8406	20.735
2.8391	20.651
2.8375	20.560
2.8360	20.461
2.8344	20.352
2.8329	20.232
2.8313	20.104
2.8298	19.968
2.8282	19.828
2.8267	19.687
2.8252	19.545
2.8236	19.404
2.8221	19.265
2.8205	19.128
2.8190	18.994
2.8175	18.865
2.8159	18.740
2.8144	18.624
2.8129	18.514
2.8114	18.413
2.8098	18.320
2.8083	18.234
2.8068	18.159
2.8053	18.099
2.8038	18.060
2.8022	18.046
2.8007	18.061
2.7992	18.101
2.7977	18.157
2.7962	18.217
2.7947	18.268
2.7932	18.302
2.7917	18.317
2.7902	18.315
2.7887	18.303
2.7872	18.289
2.7857	18.275
2.7842	18.263
2.7827	18.248
2.7812	18.224
2.7797	18.187
2.7782	18.134
2.7767	18.068
2.7752	17.993
2.7738	17.921
2.7723	17.862
2.7708	17.826
2.7693	17.817
2.7678	17.832
2.7664	17.858
2.7649	17.877
2.7634	17.867
2.7619	17.811
2.7605	17.698
2.7590	17.525
2.7575	17.296
2.7561	17.018
2.7546	16.697
2.7531	16.342
2.7517	15.956
2.7502	15.547
2.7488	15.127
2.7473	14.711
2.7458	14.321
2.7444	13.980
2.7429	13.706
2.7415	13.511
2.7400	13.391
2.7386	13.332
2.7371	13.307
2.7357	13.285
2.7343	13.241
2.7328	13.158
2.7314	13.034
2.7299	12.874
2.7285	12.688
2.7271	12.479
2.7256	12.241
2.7242	11.963
2.7228	11.628
2.7213	11.228
2.7199	10.767
2.7185	10.269
2.7171	9.7734
2.7156	9.3410
2.7142	9.0376
2.7128	8.9201
2.7114	9.0227
2.7100	9.3431
2.7085	9.8463
2.7071	10.484
2.7057	11.232
2.7043	12.124
2.7029	13.255
2.7015	14.762
2.7001	16.760
2.6987	19.292
2.6973	22.283
2.6959	25.548
2.6945	28.844
2.6931	31.948
2.6917	34.708
2.6903	37.076
2.6889	39.089
2.6875	40.840
2.6861	42.431
2.6847	43.942
2.6833	45.423
2.6819	46.899
2.6805	48.371
2.6791	49.821
2.6778	51.216
2.6764	52.512
2.6750	53.664
2.6736	54.637
2.6722	55.421
2.6709	56.034
2.6695	56.516
2.6681	56.913
2.6667	57.264
2.6654	57.593
2.6640	57.904
2.6626	58.185
2.6613	58.417
2.6599	58.590
2.6585	58.702
2.6572	58.764
2.6558	58.795
2.6545	58.826
2.6531	58.884
2.6517	58.988
2.6504	59.150
2.6490	59.367
2.6477	59.628
2.6463	59.912
2.6450	60.201
2.6436	60.477
2.6423	60.726
2.6409	60.938
2.6396	61.107
2.6382	61.225
2.6369	61.289
2.6356	61.303
2.6342	61.281
2.6329	61.242
2.6315	61.208
2.6302	61.198
2.6289	61.219
2.6275	61.262
2.6262	61.309
2.6249	61.339
2.6236	61.335
2.6222	61.296
2.6209	61.231
2.6196	61.162
2.6183	61.111
2.6169	61.085
2.6156	61.085
2.6143	61.095
2.6130	61.093
2.6117	61.059
2.6103	60.989
2.6090	60.898
2.6077	60.808
2.6064	60.746
2.6051	60.730
2.6038	60.755
2.6025	60.796
2.6012	60.814
2.5999	60.784
2.5986	60.697
2.5973	60.573
2.5960	60.445
2.5947	60.347
2.5934	60.292
2.5921	60.267
2.5908	60.239
2.5895	60.178
2.5882	60.071
2.5869	59.929
2.5856	59.779
2.5843	59.654
2.5830	59.576
2.5817	59.545
2.5805	59.539
2.5792	59.532
2.5779	59.499
2.5766	59.430
2.5753	59.328
2.5741	59.207
2.5728	59.081
2.5715	58.957
2.5702	58.831
2.5690	58.689
2.5677	58.521
2.5664	58.319
2.5651	58.090
2.5639	57.850
2.5626	57.621
2.5613	57.423
2.5601	57.266
2.5588	57.147
2.5575	57.055
2.5563	56.974
2.5550	56.889
2.5538	56.793
2.5525	56.679
2.5513	56.547
2.5500	56.395
2.5487	56.223
2.5475	56.032
2.5462	55.825
2.5450	55.608
2.5437	55.391
2.5425	55.185
2.5413	54.998
2.5400	54.839
2.5388	54.713
2.5375	54.622
2.5363	54.567
2.5350	54.547
2.5338	54.557
2.5326	54.589
2.5313	54.632
2.5301	54.675
2.5289	54.710
2.5276	54.729
2.5264	54.733
2.5252	54.721
2.5239	54.694
2.5227	54.653
2.5215	54.601
2.5202	54.538
2.5190	54.466
2.5178	54.389
2.5166	54.311
2.5154	54.234
2.5141	54.161
2.5129	54.092
2.5117	54.029
2.5105	53.978
2.5093	53.946
2.5081	53.944
2.5068	53.982
2.5056	54.067
2.5044	54.197
2.5032	54.367
2.5020	54.565
2.5008	54.777
2.4996	54.992
2.4984	55.202
2.4972	55.406
2.4960	55.604
2.4948	55.800
2.4936	55.991
2.4924	56.173
2.4912	56.336
2.4900	56.467
2.4888	56.558
2.4876	56.608
2.4864	56.623
2.4852	56.619
2.4840	56.618
2.4828	56.641
2.4816	56.704
2.4805	56.815
2.4793	56.973
2.4781	57.172
2.4769	57.398
2.4757	57.638
2.4745	57.881
2.4734	58.120
2.4722	58.352
2.4710	58.575
2.4698	58.788
2.4686	58.990
2.4675	59.177
2.4663	59.347
2.4651	59.498
2.4640	59.633
2.4628	59.751
2.4616	59.855
2.4604	59.946
2.4593	60.020
2.4581	60.076
2.4569	60.111
2.4558	60.126
2.4546	60.123
2.4535	60.105
2.4523	60.074
2.4511	60.031
2.4500	59.975
2.4488	59.905
2.4477	59.819
2.4465	59.722
2.4454	59.617
2.4442	59.509
2.4431	59.405
2.4419	59.311
2.4408	59.232
2.4396	59.175
2.4385	59.143
2.4373	59.144
2.4362	59.182
2.4350	59.259
2.4339	59.375
2.4327	59.528
2.4316	59.706
2.4305	59.897
2.4293	60.083
2.4282	60.250
2.4270	60.386
2.4259	60.487
2.4248	60.556
2.4236	60.598
2.4225	60.623
2.4214	60.636
2.4202	60.639
2.4191	60.634
2.4180	60.622
2.4169	60.607
2.4157	60.594
2.4146	60.591
2.4135	60.605
2.4124	60.637
2.4112	60.686
2.4101	60.742
2.4090	60.799
2.4079	60.848
2.4068	60.885
2.4056	60.910
2.4045	60.926
2.4034	60.938
2.4023	60.950
2.4012	60.964
2.4001	60.983
2.3990	61.006
2.3979	61.033
2.3967	61.065
2.3956	61.106
2.3945	61.157
2.3934	61.219
2.3923	61.291
2.3912	61.365
2.3901	61.435
2.3890	61.492
2.3879	61.534
2.3868	61.562
2.3857	61.582
2.3846	61.601
2.3835	61.623
2.3824	61.648
2.3813	61.671
2.3802	61.685
2.3791	61.688
2.3781	61.678
2.3770	61.657
2.3759	61.633
2.3748	61.610
2.3737	61.596
2.3726	61.596
2.3715	61.614
2.3704	61.653
2.3694	61.714
2.3683	61.791
2.3672	61.879
2.3661	61.965
2.3650	62.039
2.3640	62.092
2.3629	62.119
2.3618	62.116
2.3607	62.083
2.3597	62.017
2.3586	61.918
2.3575	61.785
2.3564	61.621
2.3554	61.430
2.3543	61.217
2.3532	60.988
2.3522	60.741
2.3511	60.471
2.3500	60.173
2.3490	59.836
2.3479	59.460
2.3468	59.047
2.3458	58.605
2.3447	58.145
2.3436	57.681
2.3426	57.225
2.3415	56.787
2.3405	56.379
2.3394	56.016
2.3384	55.713
2.3373	55.484
2.3363	55.340
2.3352	55.279
2.3342	55.289
2.3331	55.345
2.3321	55.418
2.3310	55.477
2.3300	55.503
2.3289	55.490
2.3279	55.449
2.3268	55.401
2.3258	55.375
2.3247	55.393
2.3237	55.473
2.3226	55.618
2.3216	55.823
2.3206	56.072
2.3195	56.349
2.3185	56.635
2.3175	56.916
2.3164	57.185
2.3154	57.437
2.3144	57.674
2.3133	57.902
2.3123	58.122
2.3113	58.337
2.3102	58.546
2.3092	58.749
2.3082	58.942
2.3071	59.123
2.3061	59.292
2.3051	59.450
2.3041	59.598
2.3030	59.741
2.3020	59.879
2.3010	60.014
2.3000	60.146
2.2990	60.269
2.2979	60.382
2.2969	60.481
2.2959	60.568
2.2949	60.645
2.2939	60.718
2.2929	60.791
2.2918	60.871
2.2908	60.961
2.2898	61.063
2.2888	61.176
2.2878	61.299
2.2868	61.425
2.2858	61.548
2.2848	61.657
2.2838	61.749
2.2828	61.821
2.2818	61.876
2.2808	61.918
2.2798	61.948
2.2787	61.966
2.2777	61.970
2.2767	61.959
2.2757	61.934
2.2747	61.905
2.2738	61.885
2.2728	61.891
2.2718	61.938
2.2708	62.036
2.2698	62.188
2.2688	62.390
2.2678	62.631
2.2668	62.897
2.2658	63.170
2.2648	63.433
2.2638	63.673
2.2628	63.880
2.2618	64.049
2.2609	64.184
2.2599	64.289
2.2589	64.370
2.2579	64.429
2.2569	64.470
2.2559	64.492
2.2550	64.498
2.2540	64.495
2.2530	64.489
2.2520	64.490
2.2510	64.504
2.2501	64.534
2.2491	64.575
2.2481	64.620
2.2471	64.664
2.2462	64.700
2.2452	64.732
2.2442	64.765
2.2433	64.807
2.2423	64.865
2.2413	64.943
2.2403	65.040
2.2394	65.155
2.2384	65.284
2.2374	65.424
2.2365	65.574
2.2355	65.735
2.2345	65.901
2.2336	66.068
2.2326	66.229
2.2317	66.377
2.2307	66.510
2.2297	66.628
2.2288	66.737
2.2278	66.838
2.2269	66.935
2.2259	67.023
2.2250	67.101
2.2240	67.162
2.2231	67.206
2.2221	67.234
2.2211	67.255
2.2202	67.276
2.2192	67.303
2.2183	67.342
2.2173	67.392
2.2164	67.449
2.2155	67.507
2.2145	67.559
2.2136	67.602
2.2126	67.633
2.2117	67.654
2.2107	67.665
2.2098	67.671
2.2088	67.675
2.2079	67.681
2.2070	67.691
2.2060	67.707
2.2051	67.728
2.2041	67.751
2.2032	67.774
2.2023	67.793
2.2013	67.806
2.2004	67.811
2.1995	67.807
2.1985	67.799
2.1976	67.788
2.1967	67.778
2.1957	67.772
2.1948	67.773
2.1939	67.784
2.1930	67.802
2.1920	67.826
2.1911	67.850
2.1902	67.871
2.1893	67.884
2.1883	67.889
2.1874	67.888
2.1865	67.887
2.1856	67.887
2.1846	67.890
2.1837	67.894
2.1828	67.897
2.1819	67.897
2.1810	67.894
2.1800	67.893
2.1791	67.894
2.1782	67.897
2.1773	67.900
2.1764	67.899
2.1755	67.889
2.1746	67.872
2.1736	67.850
2.1727	67.829
2.1718	67.812
2.1709	67.802
2.1700	67.799
2.1691	67.801
2.1682	67.804
2.1673	67.806
2.1664	67.808
2.1655	67.808
2.1646	67.807
2.1637	67.806
2.1628	67.806
2.1619	67.807
2.1610	67.808
2.1601	67.806
2.1592	67.800
2.1583	67.785
2.1574	67.759
2.1565	67.723
2.1556	67.680
2.1547	67.635
2.1538	67.595
2.1529	67.565
2.1520	67.548
2.1511	67.539
2.1502	67.535
2.1493	67.530
2.1484	67.521
2.1475	67.505
2.1466	67.481
2.1458	67.450
2.1449	67.410
2.1440	67.363
2.1431	67.309
2.1422	67.256
2.1413	67.211
2.1404	67.181
2.1396	67.169
2.1387	67.170
2.1378	67.174
2.1369	67.165
2.1360	67.134
2.1352	67.081
2.1343	67.016
2.1334	66.956
2.1325	66.918
2.1316	66.916
2.1308	66.951
2.1299	67.015
2.1290	67.093
2.1281	67.171
2.1273	67.237
2.1264	67.281
2.1255	67.305
2.1247	67.313
2.1238	67.310
2.1229	67.306
2.1220	67.303
2.1212	67.302
2.1203	67.302
2.1194	67.298
2.1186	67.285
2.1177	67.261
2.1168	67.229
2.1160	67.192
2.1151	67.155
2.1143	67.122
2.1134	67.098
2.1125	67.083
2.1117	67.080
2.1108	67.091
2.1100	67.116
2.1091	67.155
2.1082	67.205
2.1074	67.259
2.1065	67.309
2.1057	67.346
2.1048	67.366
2.1040	67.368
2.1031	67.356
2.1023	67.340
2.1014	67.329
2.1005	67.331
2.0997	67.348
2.0988	67.378
2.0980	67.412
2.0971	67.442
2.0963	67.459
2.0955	67.464
2.0946	67.463
2.0938	67.465
2.0929	67.479
2.0921	67.505
2.0912	67.541
2.0904	67.577
2.0895	67.607
2.0887	67.627
2.0879	67.645
2.0870	67.662
2.0862	67.682
2.0853	67.713
2.0845	67.727
2.0837	67.746
2.0828	67.772
2.0820	67.733
2.0812	67.853
2.0803	67.885
2.0795	67.882
2.0760	67.882
2.0720	67.976
2.0680	67.920
2.0640	68.110
2.0600	68.243
2.0560	68.110
2.0520	68.054
2.0480	67.885
2.0440	67.735
2.0400	67.303
2.0360	67.043
2.0320	66.770
2.0280	66.607
2.0240	66.568
2.0200	66.583
2.0160	66.435
2.0120	66.087
2.0080	65.793
2.0040	65.687
2.0000	65.263
1.9960	65.013
1.9920	64.972
1.9880	64.868
1.9840	64.590
1.9800	64.394
1.9760	64.148
1.9720	64.004
1.9680	64.045
1.9640	63.943
1.9600	63.728
1.9560	63.871
1.9520	64.004
1.9480	63.953
1.9440	63.769
1.9400	63.636
1.9360	63.656
1.9320	63.668
1.9280	63.467
1.9240	63.807
1.9200	63.621
1.9160	63.569
1.9120	63.849
1.9080	64.036
1.9040	64.317
1.9000	64.648
1.8960	64.774
1.8920	65.064
1.8880	65.462
1.8840	65.347
1.8800	65.920
1.8760	66.262
1.8720	66.440
1.8680	66.177
1.8640	66.294
1.8600	66.368
1.8560	66.283
1.8520	66.540
1.8480	66.511
1.8440	66.568
1.8400	66.734
1.8360	66.802
1.8320	66.956
1.8280	66.956
1.8240	66.715
1.8200	66.619
1.8160	66.657
1.8120	66.501
1.8080	66.449
1.8040	66.695
1.8000	66.605
1.7960	66.346
1.7920	66.449
1.7880	66.322
1.7840	66.411
1.7800	66.605
1.7760	66.501
1.7720	66.219
1.7680	66.068
1.7640	66.068
1.7600	65.899
1.7560	66.116
1.7520	65.962
1.7480	65.949
1.7440	66.191
1.7400	65.937
1.7360	66.402
1.7320	66.288
1.7280	66.121
1.7240	66.030
1.7200	66.288
1.7160	66.298
1.7120	66.619
1.7080	66.524
1.7040	66.718
1.7000	66.201
1.6960	66.355
1.6920	66.201
1.6880	66.572
1.6840	65.946
1.6800	66.256
1.6760	66.397
1.6720	66.317
1.6680	66.304
1.6640	66.266
1.6600	66.228
1.6560	66.036
1.6520	65.514
1.6480	65.577
1.6440	66.038
1.6400	65.653
1.6360	65.474
1.6320	65.627
1.6280	65.525
1.6240	65.602
1.6200	65.679
1.6160	65.476
1.6120	65.425
1.6080	65.819
1.6040	65.807
1.6000	65.678
1.5960	65.704
1.5920	65.588
1.5880	65.358
1.5840	65.499
1.5800	65.704
1.5760	65.529
1.5720	65.697
1.5680	65.493
1.5640	65.228
1.5600	64.978
1.5560	64.967
1.5520	65.167
1.5480	65.368
1.5440	64.783
1.5400	64.003
1.5360	64.359
1.5320	64.598
1.5280	64.917
1.5240	64.945
1.5200	64.388
1.5160	64.467
1.5120	64.794
1.5080	65.248
1.5040	65.192
1.5000	65.069
1.4960	64.806
1.4920	63.869
1.4880	63.761
1.4840	63.752
1.4800	63.734
1.4760	63.637
1.4720	63.588
1.4680	63.999
1.4640	64.198
1.4600	63.999
1.4560	64.129
1.4520	63.533
1.4480	63.118
1.4440	63.045
1.4400	63.028
1.4360	63.036
1.4320	63.134
1.4280	63.036
1.4240	62.979
1.4200	62.931
1.4160	62.841
1.4120	62.634
1.4080	62.423
1.4040	62.029
1.4000	61.764
1.3960	61.174
1.3920	59.802
1.3880	58.529
1.3840	57.761
1.3800	58.118
1.3760	59.353
1.3720	60.029
1.3680	61.503
1.3640	62.197
1.3600	62.508
1.3560	62.410
1.3520	62.587
1.3480	62.389
1.3440	62.560
1.3400	62.500
1.3360	62.329
1.3320	62.525
1.3280	62.621
1.3240	62.321
1.3200	62.270
1.3160	62.142
1.3120	62.095
1.3080	62.095
1.3040	61.911
1.3000	61.911
1.2960	61.822
1.2920	61.785
1.2880	61.611
1.2840	61.487
1.2800	61.367
1.2760	61.653
1.2720	61.471
1.2680	61.614
1.2640	61.444
1.2600	61.444
1.2560	61.258
1.2520	61.075
1.2480	61.210
1.2440	60.927
1.2400	60.754
1.2360	60.801
1.2320	60.757
1.2280	60.854
1.2240	60.485
1.2200	60.801
1.2160	60.895
1.2120	60.573
1.2080	60.207
1.2040	60.478
1.2000	60.568
1.1960	60.531
1.1920	60.482
1.1880	60.274
1.1840	60.229
1.1800	60.183
1.1760	60.226
1.1720	60.135
1.1680	60.135
1.1640	59.876
1.1600	59.913
1.1560	59.780
1.1520	59.430
1.1480	59.648
1.1440	59.603
1.1400	59.648
1.1360	59.430
1.1320	59.113
1.1280	59.430
1.1240	59.566
1.1200	59.212
1.1160	58.984
1.1120	59.803
1.1080	59.848
1.1040	59.574
1.1000	59.067
1.0960	59.620
1.0920	59.348
1.0880	59.483
1.0840	59.392
1.0800	59.077
1.0760	58.940
1.0720	58.589
1.0680	58.407
1.0640	59.178
1.0600	59.447
1.0560	59.090
1.0520	58.733
1.0480	58.973
1.0440	59.268
1.0400	59.221
1.0360	59.265
1.0320	58.993
1.0280	59.085
1.0240	59.175
1.0200	59.356
1.0160	59.492
1.0120	58.997
1.0080	58.814
1.0040	58.903
1.0000	58.861
0.99600	58.672
0.99200	59.020
0.98800	58.954
0.98400	58.809
0.98000	58.947
0.97600	58.491
0.97200	58.679
0.96800	58.626
0.96400	58.804
0.96000	58.807
0.95600	58.670
0.95200	58.627
0.94800	58.537
0.94400	58.447
0.94000	58.449
0.93600	58.361
0.93200	58.585
0.92800	58.321
0.92400	58.445
0.92000	58.142
0.91600	58.357
0.91200	58.224
0.90800	58.222
0.90400	58.135
0.90000	58.132
0.89600	58.089
0.89200	57.910
0.88800	57.954
0.88400	57.862
0.88000	57.852
0.87600	57.893
0.87200	58.020
0.86800	57.752
0.86400	57.884
0.86000	57.955
0.85600	57.650
0.85200	57.694
0.84800	57.584
0.84400	57.644
0.84000	57.644
0.83600	57.683
0.83200	57.513
0.82800	57.469
0.82400	57.791
0.82000	57.874
0.81600	57.758
0.81200	57.540
0.80800	57.988
0.80400	57.900
0.80000	57.900
0.79900	57.156
0.79800	57.156
0.79700	57.204
0.79600	57.205
0.79500	57.302
0.79400	57.251
0.79300	56.815
0.79200	56.864
0.79100	56.812
0.79000	57.008
0.78900	56.864
0.78800	56.669
0.78700	57.009
0.78600	56.960
0.78500	57.059
0.78400	57.153
0.78300	56.959
0.78200	56.524
0.78100	56.230
0.78000	56.861
0.77900	56.813
0.77800	56.521
0.77700	56.423
0.77600	56.475
0.77500	56.375
0.77400	56.182
0.77300	56.182
0.77200	56.421
0.77100	56.424
0.77000	55.705
0.76900	55.510
0.76800	55.937
0.76700	56.324
0.76600	56.421
0.76500	56.276
0.76400	56.705
0.76300	56.664
0.76200	56.084
0.76100	56.269
0.76000	55.646
0.75900	55.890
0.75800	55.986
0.75700	55.890
0.75600	55.791
0.75500	56.275
0.75400	56.026
0.75300	55.551
0.75200	55.889
0.75100	55.985
0.75000	55.503
0.74900	55.791
0.74800	55.985
0.74700	55.985
0.74600	55.502
0.74500	55.694
0.74400	55.737
0.74300	54.927
0.74200	55.205
0.74100	55.730
0.74000	55.732
0.73900	55.496
0.73800	55.788
0.73700	55.597
0.73600	55.351
0.73500	55.306
0.73400	55.496
0.73300	55.540
0.73200	55.829
0.73100	55.734
0.73000	55.497
0.72900	55.881
0.72800	55.636
0.72700	55.296
0.72600	55.440
0.72500	55.733
0.72400	55.443
0.72300	55.443
0.72200	55.491
0.72100	55.880
0.72000	55.541
0.71900	55.827
0.71800	56.073
0.71700	56.219
0.71600	55.827
0.71500	55.439
0.71400	55.439
0.71300	55.538
0.71200	55.777
0.71100	55.289
0.71000	55.580
0.70900	55.435
0.70800	55.630
0.70700	55.243
0.70600	55.339
0.70500	55.485
0.70400	55.532
0.70300	55.580
0.70200	55.580
0.70100	55.193
0.70000	55.531
0.69900	55.971
0.69800	55.668
0.69700	56.020
0.69600	55.820
0.69500	55.719
0.69400	55.920
0.69300	56.070
0.69200	55.721
0.69100	56.020
0.69000	56.170
0.68900	56.221
0.68800	56.020
0.68700	55.820
0.68600	55.820
0.68500	55.919
0.68400	55.920
0.68300	55.920
0.68200	55.970
0.68100	56.070
0.68000	56.020
0.67900	56.170
0.67800	56.521
0.67700	55.920
0.67600	56.120
0.67500	56.271
0.67400	56.271
0.67300	56.372
0.67200	55.970
0.67100	56.372
0.67000	56.221
0.66900	56.171
0.66800	55.919
0.66700	56.120
0.66600	56.170
0.66500	56.020
0.66400	55.770
0.66300	55.820
0.66200	56.170
0.66100	56.271
0.66000	56.372
0.65900	56.829
0.65800	56.829
0.65700	56.625
0.65600	56.372
0.65500	56.221
0.65400	56.020
0.65300	56.120
0.65200	56.120
0.65100	56.420
0.65000	56.319
0.64900	55.971
0.64800	56.269
0.64700	56.723
0.64600	57.133
0.64500	57.031
0.64400	57.133
0.64300	56.929
0.64200	56.673
0.64100	56.521
0.64000	56.980
0.63900	57.081
0.63800	56.824
0.63700	56.670
0.63600	56.718
0.63500	56.570
0.63400	56.621
0.63300	56.670
0.63200	56.620
0.63100	56.672
0.63000	56.621
0.62900	56.919
0.62800	56.968
0.62700	56.769
0.62600	56.719
0.62500	56.874
0.62400	56.722
0.62300	56.670
0.62200	56.569
0.62100	56.717
0.62000	56.925
0.61900	56.881
0.61800	57.140
0.61700	57.288
0.61600	57.133
0.61500	57.030
0.61400	56.925
0.61300	57.021
0.61200	57.534
0.61100	57.841
0.61000	57.687
0.60900	57.635
0.60800	57.583
0.60700	57.280
0.60600	57.079
0.60500	57.130
0.60400	57.029
0.60300	57.133
0.60200	57.187
0.60100	56.936
0.60000	57.146
0.59900	57.407
0.59800	57.096
0.59700	57.050
0.59600	57.104
0.59500	56.944
0.59400	56.790
0.59300	56.899
0.59200	57.108
0.59100	57.055
0.59000	57.052
0.58900	56.897
0.58800	57.108
0.58700	57.002
0.58600	57.211
0.58500	57.474
0.58400	56.788
0.58300	56.998
0.58200	56.790
0.58100	56.429
0.58000	57.103
0.57900	57.312
0.57800	57.466
0.57700	57.049
0.57600	56.843
0.57500	56.895
0.57400	57.510
0.57300	57.498
0.57200	57.234
0.57100	57.747
0.57000	57.537
0.56900	57.181
0.56800	57.081
0.56700	56.780
0.56600	56.934
0.56500	56.883
0.56400	56.780
0.56300	56.885
0.56200	56.731
0.56100	56.630
0.56000	56.738
0.55900	56.533
0.55800	56.533
0.55700	56.729
0.55600	56.535
0.55500	56.242
0.55400	56.338
0.55300	56.435
0.55200	56.482
0.55100	56.330
0.55000	56.078
0.54900	56.669
0.54800	55.978
0.54700	55.930
0.54600	56.071
0.54500	56.269
0.54400	56.074
0.54300	56.467
0.54200	56.717
0.54100	56.315
0.54000	56.315
0.53900	56.356
0.53800	56.609
0.53700	56.359
0.53600	56.056
0.53500	56.007
0.53400	56.004
0.53300	55.620
0.53200	55.187
0.53100	55.040
0.53000	54.737
0.52900	54.673
0.52800	54.956
0.52700	54.507
0.52600	54.807
0.52500	55.310
0.52400	55.104
0.52300	55.162
0.52200	55.411
0.52100	55.162
0.52000	55.146
0.51900	55.299
0.51800	54.956
0.51700	55.003
0.51600	54.755
0.51500	54.695
0.51400	54.352
0.51300	54.499
0.51200	54.520
0.51100	54.373
0.51000	54.158
0.50900	53.866
0.50800	54.298
0.50700	54.580
0.50600	54.329
0.50500	54.290
0.50400	54.182
0.50300	54.416
0.50200	53.926
0.50100	54.114
0.50000	54.261
0.49900	53.694
0.49800	53.282
0.49700	52.823
0.49600	53.045
0.49500	53.080
0.49400	52.889
0.49300	53.126
0.49200	52.949
0.49100	53.280
0.49000	53.050
0.48900	52.745
0.48800	52.890
0.48700	52.519
0.48600	52.204
0.48500	52.436
0.48400	52.642
0.48300	52.778
0.48200	52.451
0.48100	52.046
0.48000	52.036
0.47900	51.921
0.47800	52.260
0.47700	51.466
0.47600	51.437
0.47500	51.350
0.47400	51.409
0.47300	51.115
0.47200	50.926
0.47100	50.593
0.47000	50.390
0.46900	49.892
0.46800	49.738
0.46700	49.166
0.46600	49.207
0.46500	48.620
0.46400	48.559
0.46300	48.396
0.46200	48.212
0.46100	47.705
0.46000	47.203
0.45900	48.572
0.45800	48.613
0.45700	48.427
0.45600	48.302
0.45500	48.078
0.45400	48.240
0.45300	47.877
0.45200	47.829
0.45100	47.671
0.45000	47.972
0.44900	47.989
0.44800	47.661
0.44700	47.392
0.44600	47.522
0.44500	47.208
0.44400	47.212
0.44300	46.580
0.44200	46.730
0.44100	47.222
0.44000	47.007
0.43900	46.773
0.43800	46.719
0.43700	46.363
0.43600	46.680
0.43500	46.444
0.43400	46.648
0.43300	46.605
0.43200	46.644
0.43100	46.654
0.43000	46.837
0.42900	46.843
0.42800	46.411
0.42700	46.458
0.42600	46.544
0.42500	46.249
0.42400	46.324
0.42300	46.737
0.42200	46.380
0.42100	46.133
0.42000	46.620
0.41900	46.421
0.41800	46.057
0.41700	45.896
0.41600	46.101
0.41500	46.279
0.41400	46.324
0.41300	45.958
0.41200	45.605
0.41100	45.527
0.41000	45.627
0.40900	45.848
0.40800	46.064
0.40700	46.102
0.40600	45.958
0.40500	45.990
0.40400	45.782
0.40300	45.357
0.40200	45.713
0.40100	46.030
0.40000	45.824
