Name: 12070.405
Type: Soil
Class: Lunar
Subclass: Maria
Particle Size: Fine
Sample No.: 12070.405
Owner: JHU
Wavelength range: IR
Origin: Apollo 12 landing site via the NASA Lunar Sample Repository at Johnson 
Space Center, Houston, TX.
Description:  This is an extra sample from the Apollo 12 mare site.  This sample 
has an intermediate exposure age compared to the other three soils from the 
Apollo 12 site (Is/FeO=47).



Measurement:  Directional (10 degree) hemispherical reflectance
First Column:  X
Second Column:  Y
X Units:  Wavelength (micrometers)
Y Units:  Reflectance (percent)
First X Value:  14.011
Last X Value:  2.079
Number of X Values:  2124
Additional information:  None

14.011	1.3461
13.973	1.3695
13.936	1.2991
13.899	1.3505
13.861	1.3191
13.824	1.3327
13.788	1.3330
13.751	1.3761
13.715	1.3413
13.679	1.4028
13.643	1.4406
13.607	1.4475
13.571	1.4377
13.536	1.4453
13.500	1.4491
13.465	1.4567
13.430	1.4457
13.396	1.4755
13.361	1.5084
13.327	1.4928
13.293	1.5234
13.259	1.5347
13.225	1.5105
13.191	1.4950
13.158	1.5227
13.124	1.5638
13.091	1.5587
13.058	1.6019
13.026	1.6166
12.993	1.6241
12.960	1.6643
12.928	1.6923
12.896	1.7113
12.864	1.7197
12.832	1.6813
12.800	1.7095
12.769	1.7793
12.737	1.8559
12.706	1.8661
12.675	1.8789
12.644	1.9022
12.614	1.9603
12.583	1.9791
12.552	1.9992
12.522	2.0289
12.492	2.0676
12.462	2.0953
12.432	2.1295
12.402	2.1523
12.373	2.1837
12.343	2.2135
12.314	2.2494
12.285	2.2471
12.256	2.2699
12.227	2.2780
12.198	2.2795
12.169	2.2657
12.141	2.2571
12.113	2.2665
12.084	2.2613
12.056	2.2260
12.028	2.2276
12.000	2.2282
11.973	2.2055
11.945	2.1896
11.918	2.1882
11.890	2.1932
11.863	2.2150
11.836	2.2243
11.809	2.2297
11.782	2.2410
11.755	2.2652
11.729	2.2569
11.702	2.2506
11.676	2.2673
11.650	2.2941
11.624	2.3073
11.598	2.3183
11.572	2.3131
11.546	2.3358
11.520	2.3500
11.495	2.3784
11.469	2.3817
11.444	2.3814
11.419	2.4259
11.394	2.4385
11.369	2.4071
11.344	2.3752
11.319	2.3782
11.294	2.3858
11.270	2.3729
11.245	2.3538
11.221	2.3444
11.197	2.3504
11.173	2.3459
11.149	2.3459
11.125	2.2989
11.101	2.2679
11.077	2.2784
11.054	2.3055
11.030	2.2956
11.007	2.2936
10.983	2.3031
10.960	2.2967
10.937	2.2912
10.914	2.3054
10.891	2.3032
10.868	2.3063
10.846	2.3253
10.823	2.3392
10.800	2.3377
10.778	2.3302
10.755	2.3036
10.733	2.2807
10.711	2.2802
10.689	2.2857
10.667	2.2658
10.645	2.2568
10.623	2.2355
10.602	2.1930
10.580	2.1667
10.558	2.1641
10.537	2.1584
10.516	2.1512
10.494	2.1337
10.473	2.1211
10.452	2.1092
10.431	2.0931
10.410	2.0803
10.389	2.0883
10.368	2.0643
10.348	2.0442
10.327	2.0299
10.306	2.0019
10.286	1.9757
10.266	1.9778
10.245	1.9656
10.225	1.9479
10.205	1.9261
10.185	1.9117
10.165	1.8934
10.145	1.9085
10.125	1.9430
10.106	1.9392
10.086	1.9067
10.066	1.8791
10.047	1.8672
10.027	1.8888
10.008	1.8875
9.9887	1.8764
9.9695	1.8692
9.9504	1.8730
9.9313	1.8777
9.9123	1.8664
9.8934	1.8558
9.8746	1.8580
9.8558	1.8671
9.8371	1.8668
9.8185	1.8541
9.7999	1.8759
9.7814	1.8523
9.7630	1.8269
9.7447	1.8462
9.7264	1.8472
9.7082	1.8286
9.6900	1.8296
9.6719	1.8070
9.6539	1.7726
9.6360	1.8057
9.6181	1.8332
9.6003	1.8138
9.5825	1.8243
9.5649	1.8126
9.5472	1.8138
9.5297	1.8123
9.5122	1.8146
9.4948	1.8151
9.4774	1.7942
9.4601	1.7739
9.4429	1.7905
9.4257	1.7992
9.4086	1.7880
9.3916	1.7629
9.3746	1.7757
9.3577	1.7819
9.3408	1.7666
9.3240	1.7450
9.3073	1.7484
9.2906	1.7350
9.2740	1.7179
9.2574	1.7107
9.2409	1.7093
9.2245	1.7258
9.2081	1.7270
9.1918	1.6947
9.1755	1.7007
9.1593	1.7184
9.1431	1.7009
9.1270	1.6689
9.1110	1.6577
9.0950	1.6093
9.0791	1.5888
9.0632	1.6088
9.0474	1.5895
9.0316	1.5496
9.0159	1.5033
9.0003	1.4692
8.9847	1.4597
8.9691	1.4422
8.9536	1.3921
8.9382	1.3308
8.9228	1.3109
8.9075	1.2811
8.8922	1.2366
8.8770	1.2090
8.8618	1.1702
8.8467	1.1135
8.8316	1.0913
8.8166	1.0742
8.8016	1.0588
8.7867	1.0434
8.7718	1.0292
8.7570	1.0039
8.7422	0.99370
8.7275	0.99460
8.7129	1.0068
8.6982	1.0071
8.6837	0.98175
8.6692	0.97255
8.6547	0.95485
8.6403	0.92965
8.6259	0.92665
8.6116	0.91605
8.5973	0.90610
8.5830	0.86260
8.5688	0.86145
8.5547	0.88050
8.5406	0.88240
8.5266	0.88160
8.5126	0.86400
8.4986	0.83600
8.4847	0.83930
8.4708	0.83490
8.4570	0.82735
8.4432	0.83640
8.4295	0.82730
8.4158	0.79545
8.4022	0.79195
8.3886	0.79455
8.3750	0.81095
8.3615	0.82270
8.3481	0.82570
8.3347	0.80940
8.3213	0.81315
8.3079	0.81585
8.2946	0.84675
8.2814	0.88880
8.2682	0.88110
8.2550	0.88030
8.2419	0.90830
8.2288	0.93180
8.2158	0.96060
8.2028	0.98905
8.1898	1.0170
8.1769	1.0312
8.1640	1.0544
8.1512	1.1059
8.1384	1.1517
8.1256	1.1880
8.1129	1.2141
8.1002	1.2678
8.0876	1.3313
8.0750	1.4012
8.0624	1.4916
8.0499	1.5574
8.0374	1.6207
8.0250	1.7004
8.0126	1.7765
8.0002	1.8465
7.9879	1.9463
7.9756	2.0820
7.9634	2.2030
7.9512	2.2802
7.9390	2.3544
7.9268	2.4481
7.9147	2.5814
7.9027	2.7022
7.8906	2.8043
7.8786	2.9170
7.8667	3.0301
7.8548	3.1471
7.8429	3.2637
7.8310	3.3546
7.8192	3.4636
7.8075	3.5704
7.7957	3.6728
7.7840	3.7843
7.7723	3.9002
7.7607	4.0071
7.7491	4.0910
7.7375	4.1848
7.7260	4.3128
7.7145	4.4344
7.7031	4.5300
7.6916	4.6269
7.6802	4.7314
7.6689	4.8436
7.6575	4.9599
7.6462	5.0465
7.6350	5.1421
7.6238	5.2415
7.6126	5.3520
7.6014	5.4359
7.5903	5.5329
7.5792	5.6353
7.5681	5.7203
7.5571	5.8292
7.5461	5.9307
7.5351	6.0249
7.5242	6.1360
7.5133	6.2308
7.5024	6.3021
7.4916	6.3909
7.4807	6.5082
7.4700	6.6019
7.4592	6.6934
7.4485	6.8054
7.4378	6.9017
7.4272	6.9866
7.4165	7.0738
7.4059	7.1578
7.3954	7.2382
7.3848	7.3308
7.3743	7.4251
7.3639	7.5029
7.3534	7.5806
7.3430	7.6679
7.3326	7.7449
7.3223	7.8271
7.3119	7.9222
7.3016	7.9980
7.2914	8.0798
7.2811	8.1534
7.2709	8.2273
7.2607	8.2932
7.2506	8.3715
7.2404	8.4481
7.2303	8.5068
7.2203	8.5665
7.2102	8.6333
7.2002	8.7044
7.1902	8.7857
7.1803	8.8438
7.1703	8.8913
7.1604	8.9706
7.1506	9.0332
7.1407	9.0778
7.1309	9.1475
7.1211	9.2154
7.1113	9.2785
7.1016	9.3498
7.0919	9.4088
7.0822	9.4629
7.0725	9.5271
7.0629	9.5779
7.0533	9.6307
7.0437	9.7092
7.0341	9.7803
7.0246	9.8226
7.0151	9.8714
7.0056	9.9329
6.9962	10.013
6.9867	10.066
6.9773	10.114
6.9679	10.164
6.9586	10.198
6.9493	10.246
6.9400	10.311
6.9307	10.372
6.9214	10.415
6.9122	10.437
6.9030	10.493
6.8938	10.579
6.8847	10.618
6.8755	10.632
6.8664	10.650
6.8573	10.678
6.8483	10.742
6.8393	10.786
6.8302	10.795
6.8213	10.811
6.8123	10.880
6.8034	10.925
6.7944	10.933
6.7855	10.954
6.7767	10.995
6.7678	11.039
6.7590	11.092
6.7502	11.117
6.7414	11.111
6.7327	11.115
6.7239	11.135
6.7152	11.142
6.7065	11.141
6.6979	11.164
6.6892	11.167
6.6806	11.161
6.6720	11.169
6.6634	11.182
6.6549	11.218
6.6464	11.202
6.6378	11.163
6.6294	11.172
6.6209	11.219
6.6124	11.238
6.6040	11.264
6.5956	11.266
6.5872	11.245
6.5789	11.241
6.5705	11.249
6.5622	11.280
6.5539	11.308
6.5456	11.306
6.5374	11.338
6.5292	11.357
6.5209	11.356
6.5128	11.376
6.5046	11.373
6.4964	11.349
6.4883	11.381
6.4802	11.417
6.4721	11.426
6.4640	11.454
6.4560	11.484
6.4480	11.513
6.4399	11.520
6.4320	11.505
6.4240	11.496
6.4160	11.481
6.4081	11.502
6.4002	11.541
6.3923	11.555
6.3844	11.585
6.3766	11.586
6.3687	11.559
6.3609	11.573
6.3531	11.568
6.3454	11.544
6.3376	11.571
6.3299	11.593
6.3221	11.575
6.3144	11.590
6.3068	11.598
6.2991	11.592
6.2914	11.613
6.2838	11.625
6.2762	11.611
6.2686	11.607
6.2611	11.595
6.2535	11.602
6.2460	11.598
6.2385	11.589
6.2310	11.639
6.2235	11.671
6.2160	11.653
6.2086	11.649
6.2011	11.677
6.1937	11.710
6.1863	11.704
6.1790	11.724
6.1716	11.750
6.1643	11.771
6.1570	11.803
6.1496	11.847
6.1424	11.864
6.1351	11.860
6.1278	11.893
6.1206	11.927
6.1134	11.933
6.1062	11.966
6.0990	12.000
6.0918	12.026
6.0847	12.047
6.0776	12.030
6.0704	12.050
6.0633	12.073
6.0563	12.057
6.0492	12.028
6.0421	12.084
6.0351	12.157
6.0281	12.181
6.0211	12.209
6.0141	12.227
6.0071	12.265
6.0002	12.312
5.9932	12.337
5.9863	12.383
5.9794	12.454
5.9725	12.493
5.9657	12.536
5.9588	12.610
5.9520	12.659
5.9451	12.699
5.9383	12.713
5.9315	12.757
5.9247	12.857
5.9180	12.922
5.9112	12.980
5.9045	13.027
5.8978	13.056
5.8911	13.127
5.8844	13.171
5.8777	13.204
5.8711	13.282
5.8644	13.324
5.8578	13.376
5.8512	13.428
5.8446	13.454
5.8380	13.505
5.8314	13.554
5.8249	13.580
5.8184	13.627
5.8118	13.697
5.8053	13.744
5.7988	13.790
5.7923	13.844
5.7859	13.876
5.7794	13.908
5.7730	13.925
5.7666	13.931
5.7602	13.982
5.7538	14.020
5.7474	14.028
5.7410	14.073
5.7347	14.108
5.7283	14.115
5.7220	14.117
5.7157	14.126
5.7094	14.137
5.7031	14.159
5.6969	14.162
5.6906	14.171
5.6844	14.192
5.6782	14.200
5.6719	14.211
5.6657	14.225
5.6596	14.248
5.6534	14.272
5.6472	14.288
5.6411	14.308
5.6349	14.333
5.6288	14.364
5.6227	14.420
5.6166	14.471
5.6106	14.512
5.6045	14.534
5.5984	14.560
5.5924	14.581
5.5864	14.595
5.5804	14.652
5.5744	14.695
5.5684	14.722
5.5624	14.742
5.5564	14.761
5.5505	14.785
5.5445	14.805
5.5386	14.847
5.5327	14.855
5.5268	14.846
5.5209	14.854
5.5151	14.863
5.5092	14.859
5.5033	14.848
5.4975	14.861
5.4917	14.873
5.4859	14.885
5.4801	14.885
5.4743	14.868
5.4685	14.852
5.4628	14.851
5.4570	14.860
5.4513	14.863
5.4455	14.866
5.4398	14.868
5.4341	14.860
5.4284	14.855
5.4228	14.848
5.4171	14.854
5.4114	14.869
5.4058	14.880
5.4002	14.881
5.3945	14.862
5.3889	14.858
5.3833	14.869
5.3778	14.874
5.3722	14.864
5.3666	14.848
5.3611	14.857
5.3555	14.837
5.3500	14.816
5.3445	14.824
5.3390	14.855
5.3335	14.858
5.3280	14.841
5.3225	14.836
5.3171	14.867
5.3116	14.885
5.3062	14.894
5.3008	14.915
5.2954	14.924
5.2900	14.938
5.2846	14.978
5.2792	15.011
5.2738	15.035
5.2684	15.045
5.2631	15.079
5.2578	15.117
5.2524	15.155
5.2471	15.200
5.2418	15.217
5.2365	15.256
5.2312	15.304
5.2260	15.350
5.2207	15.387
5.2154	15.417
5.2102	15.466
5.2050	15.525
5.1998	15.543
5.1945	15.570
5.1893	15.634
5.1842	15.689
5.1790	15.720
5.1738	15.757
5.1686	15.796
5.1635	15.832
5.1584	15.864
5.1532	15.907
5.1481	15.967
5.1430	16.022
5.1379	16.069
5.1328	16.115
5.1277	16.154
5.1227	16.191
5.1176	16.229
5.1126	16.254
5.1075	16.302
5.1025	16.363
5.0975	16.397
5.0925	16.440
5.0875	16.493
5.0825	16.530
5.0775	16.558
5.0726	16.607
5.0676	16.641
5.0627	16.677
5.0577	16.735
5.0528	16.788
5.0479	16.831
5.0430	16.878
5.0380	16.922
5.0332	16.957
5.0283	17.017
5.0234	17.071
5.0185	17.112
5.0137	17.174
5.0088	17.233
5.0040	17.277
4.9992	17.327
4.9944	17.375
4.9896	17.427
4.9848	17.478
4.9800	17.523
4.9752	17.567
4.9704	17.619
4.9657	17.684
4.9609	17.754
4.9562	17.813
4.9514	17.857
4.9467	17.916
4.9420	17.985
4.9373	18.039
4.9326	18.086
4.9279	18.134
4.9232	18.214
4.9186	18.280
4.9139	18.321
4.9092	18.366
4.9046	18.419
4.9000	18.467
4.8953	18.512
4.8907	18.560
4.8861	18.607
4.8815	18.642
4.8769	18.698
4.8723	18.758
4.8678	18.799
4.8632	18.848
4.8586	18.882
4.8541	18.923
4.8495	18.980
4.8450	19.043
4.8405	19.094
4.8360	19.125
4.8315	19.151
4.8270	19.202
4.8225	19.267
4.8180	19.295
4.8135	19.322
4.8090	19.382
4.8046	19.427
4.8001	19.451
4.7957	19.489
4.7913	19.534
4.7868	19.560
4.7824	19.593
4.7780	19.648
4.7736	19.701
4.7692	19.726
4.7648	19.763
4.7605	19.803
4.7561	19.837
4.7517	19.883
4.7474	19.906
4.7431	19.940
4.7387	20.002
4.7344	20.057
4.7301	20.092
4.7258	20.107
4.7215	20.154
4.7172	20.207
4.7129	20.244
4.7086	20.283
4.7043	20.326
4.7000	20.353
4.6958	20.392
4.6915	20.460
4.6873	20.498
4.6831	20.509
4.6788	20.547
4.6746	20.588
4.6704	20.615
4.6662	20.647
4.6620	20.676
4.6578	20.711
4.6536	20.755
4.6495	20.809
4.6453	20.845
4.6411	20.857
4.6370	20.890
4.6328	20.925
4.6287	20.953
4.6246	20.968
4.6205	20.997
4.6163	21.040
4.6122	21.075
4.6081	21.092
4.6040	21.114
4.6000	21.132
4.5959	21.161
4.5918	21.181
4.5877	21.186
4.5837	21.216
4.5796	21.257
4.5756	21.279
4.5716	21.292
4.5675	21.322
4.5635	21.340
4.5595	21.337
4.5555	21.354
4.5515	21.396
4.5475	21.415
4.5435	21.410
4.5395	21.421
4.5356	21.453
4.5316	21.463
4.5276	21.466
4.5237	21.482
4.5197	21.506
4.5158	21.508
4.5119	21.510
4.5080	21.527
4.5040	21.550
4.5001	21.543
4.4962	21.538
4.4923	21.557
4.4884	21.576
4.4846	21.591
4.4807	21.601
4.4768	21.600
4.4730	21.603
4.4691	21.606
4.4652	21.611
4.4614	21.614
4.4576	21.623
4.4537	21.630
4.4499	21.642
4.4461	21.654
4.4423	21.657
4.4385	21.663
4.4347	21.656
4.4309	21.658
4.4271	21.684
4.4233	21.683
4.4196	21.678
4.4158	21.681
4.4120	21.672
4.4083	21.677
4.4045	21.700
4.4008	21.717
4.3971	21.703
4.3934	21.684
4.3896	21.703
4.3859	21.732
4.3822	21.728
4.3785	21.725
4.3748	21.721
4.3711	21.717
4.3674	21.730
4.3638	21.750
4.3601	21.757
4.3564	21.750
4.3528	21.758
4.3491	21.771
4.3455	21.768
4.3418	21.766
4.3382	21.772
4.3346	21.790
4.3310	21.792
4.3273	21.780
4.3237	21.789
4.3201	21.793
4.3165	21.804
4.3129	21.810
4.3094	21.808
4.3058	21.818
4.3022	21.838
4.2986	21.842
4.2951	21.842
4.2915	21.842
4.2880	21.839
4.2844	21.854
4.2809	21.866
4.2774	21.853
4.2738	21.858
4.2703	21.851
4.2668	21.840
4.2633	21.850
4.2598	21.853
4.2563	21.846
4.2528	21.841
4.2493	21.850
4.2458	21.864
4.2424	21.869
4.2389	21.874
4.2354	21.884
4.2320	21.874
4.2285	21.873
4.2251	21.876
4.2216	21.881
4.2182	21.867
4.2148	21.863
4.2113	21.874
4.2079	21.857
4.2045	21.846
4.2011	21.846
4.1977	21.847
4.1943	21.854
4.1909	21.845
4.1875	21.836
4.1841	21.843
4.1808	21.836
4.1774	21.824
4.1740	21.832
4.1707	21.829
4.1673	21.827
4.1640	21.807
4.1606	21.808
4.1573	21.843
4.1540	21.833
4.1506	21.806
4.1473	21.809
4.1440	21.830
4.1407	21.839
4.1374	21.828
4.1341	21.811
4.1308	21.803
4.1275	21.810
4.1242	21.812
4.1209	21.804
4.1177	21.801
4.1144	21.811
4.1111	21.808
4.1079	21.811
4.1046	21.808
4.1014	21.797
4.0981	21.795
4.0949	21.795
4.0917	21.790
4.0884	21.798
4.0852	21.804
4.0820	21.806
4.0788	21.799
4.0756	21.790
4.0724	21.798
4.0692	21.787
4.0660	21.772
4.0628	21.774
4.0596	21.774
4.0565	21.765
4.0533	21.763
4.0501	21.762
4.0470	21.760
4.0438	21.756
4.0406	21.759
4.0375	21.751
4.0344	21.738
4.0312	21.751
4.0281	21.768
4.0250	21.775
4.0218	21.762
4.0187	21.748
4.0156	21.742
4.0125	21.729
4.0094	21.723
4.0063	21.713
4.0032	21.702
4.0001	21.727
3.9970	21.736
3.9940	21.716
3.9909	21.711
3.9878	21.725
3.9847	21.724
3.9817	21.717
3.9786	21.707
3.9756	21.693
3.9725	21.683
3.9695	21.670
3.9665	21.666
3.9634	21.692
3.9604	21.699
3.9574	21.683
3.9544	21.680
3.9513	21.686
3.9483	21.679
3.9453	21.671
3.9423	21.660
3.9393	21.654
3.9363	21.659
3.9333	21.656
3.9304	21.640
3.9274	21.634
3.9244	21.628
3.9214	21.614
3.9185	21.602
3.9155	21.610
3.9126	21.611
3.9096	21.587
3.9067	21.571
3.9037	21.579
3.9008	21.572
3.8979	21.575
3.8949	21.576
3.8920	21.576
3.8891	21.567
3.8862	21.556
3.8833	21.548
3.8804	21.552
3.8775	21.559
3.8746	21.546
3.8717	21.520
3.8688	21.528
3.8659	21.536
3.8630	21.516
3.8601	21.502
3.8573	21.502
3.8544	21.497
3.8515	21.486
3.8487	21.463
3.8458	21.462
3.8430	21.457
3.8401	21.459
3.8373	21.466
3.8344	21.446
3.8316	21.428
3.8288	21.428
3.8259	21.433
3.8231	21.433
3.8203	21.421
3.8175	21.421
3.8147	21.443
3.8119	21.424
3.8091	21.385
3.8063	21.398
3.8035	21.393
3.8007	21.364
3.7979	21.355
3.7951	21.353
3.7924	21.361
3.7896	21.371
3.7868	21.348
3.7841	21.339
3.7813	21.328
3.7785	21.324
3.7758	21.309
3.7730	21.302
3.7703	21.307
3.7676	21.287
3.7648	21.276
3.7621	21.268
3.7594	21.262
3.7566	21.266
3.7539	21.252
3.7512	21.245
3.7485	21.242
3.7458	21.225
3.7431	21.213
3.7404	21.210
3.7377	21.221
3.7350	21.213
3.7323	21.193
3.7296	21.178
3.7269	21.166
3.7242	21.177
3.7216	21.175
3.7189	21.164
3.7162	21.152
3.7136	21.154
3.7109	21.151
3.7083	21.117
3.7056	21.101
3.7030	21.102
3.7003	21.112
3.6977	21.108
3.6950	21.091
3.6924	21.076
3.6898	21.080
3.6872	21.099
3.6845	21.081
3.6819	21.042
3.6793	21.018
3.6767	21.026
3.6741	21.028
3.6715	21.023
3.6689	21.007
3.6663	21.000
3.6637	21.010
3.6611	20.967
3.6585	20.955
3.6560	20.987
3.6534	20.990
3.6508	20.967
3.6482	20.928
3.6457	20.917
3.6431	20.922
3.6406	20.927
3.6380	20.921
3.6355	20.911
3.6329	20.910
3.6304	20.902
3.6278	20.885
3.6253	20.871
3.6227	20.876
3.6202	20.883
3.6177	20.870
3.6152	20.869
3.6127	20.864
3.6101	20.851
3.6076	20.820
3.6051	20.809
3.6026	20.798
3.6001	20.806
3.5976	20.790
3.5951	20.777
3.5926	20.780
3.5901	20.781
3.5876	20.770
3.5852	20.756
3.5827	20.756
3.5802	20.749
3.5777	20.726
3.5753	20.730
3.5728	20.712
3.5704	20.686
3.5679	20.700
3.5654	20.705
3.5630	20.699
3.5605	20.685
3.5581	20.677
3.5557	20.690
3.5532	20.679
3.5508	20.624
3.5484	20.601
3.5459	20.642
3.5435	20.651
3.5411	20.619
3.5387	20.604
3.5363	20.580
3.5338	20.558
3.5314	20.557
3.5290	20.577
3.5266	20.573
3.5242	20.551
3.5218	20.557
3.5195	20.546
3.5171	20.528
3.5147	20.529
3.5123	20.497
3.5099	20.475
3.5075	20.452
3.5052	20.409
3.5028	20.376
3.5004	20.347
3.4981	20.347
3.4957	20.342
3.4934	20.342
3.4910	20.363
3.4887	20.363
3.4863	20.364
3.4840	20.391
3.4816	20.391
3.4793	20.351
3.4770	20.321
3.4746	20.324
3.4723	20.324
3.4700	20.332
3.4677	20.308
3.4653	20.296
3.4630	20.288
3.4607	20.281
3.4584	20.265
3.4561	20.259
3.4538	20.265
3.4515	20.278
3.4492	20.268
3.4469	20.221
3.4446	20.206
3.4423	20.210
3.4400	20.178
3.4378	20.189
3.4355	20.173
3.4332	20.114
3.4309	20.087
3.4287	20.064
3.4264	20.044
3.4241	20.005
3.4219	19.965
3.4196	19.927
3.4174	19.904
3.4151	19.907
3.4129	19.888
3.4106	19.900
3.4084	19.928
3.4061	19.937
3.4039	19.940
3.4017	19.953
3.3994	19.985
3.3972	19.998
3.3950	20.025
3.3928	20.010
3.3906	19.973
3.3883	19.964
3.3861	19.977
3.3839	19.947
3.3817	19.899
3.3795	19.886
3.3773	19.870
3.3751	19.863
3.3729	19.867
3.3707	19.845
3.3685	19.821
3.3663	19.849
3.3641	19.896
3.3620	19.924
3.3598	19.918
3.3576	19.914
3.3554	19.896
3.3533	19.906
3.3511	19.904
3.3489	19.907
3.3468	19.902
3.3446	19.899
3.3425	19.868
3.3403	19.856
3.3382	19.854
3.3360	19.847
3.3339	19.839
3.3317	19.832
3.3296	19.817
3.3274	19.823
3.3253	19.824
3.3232	19.810
3.3210	19.794
3.3189	19.799
3.3168	19.802
3.3147	19.780
3.3126	19.745
3.3104	19.745
3.3083	19.758
3.3062	19.742
3.3041	19.727
3.3020	19.729
3.2999	19.717
3.2978	19.694
3.2957	19.697
3.2936	19.686
3.2915	19.674
3.2894	19.695
3.2874	19.681
3.2853	19.628
3.2832	19.615
3.2811	19.635
3.2790	19.637
3.2770	19.636
3.2749	19.612
3.2728	19.590
3.2708	19.560
3.2687	19.545
3.2666	19.557
3.2646	19.553
3.2625	19.543
3.2605	19.526
3.2584	19.512
3.2564	19.509
3.2543	19.495
3.2523	19.507
3.2503	19.527
3.2482	19.503
3.2462	19.478
3.2442	19.476
3.2421	19.437
3.2401	19.437
3.2381	19.460
3.2361	19.454
3.2340	19.441
3.2320	19.415
3.2300	19.392
3.2280	19.369
3.2260	19.368
3.2240	19.342
3.2220	19.350
3.2200	19.391
3.2180	19.373
3.2160	19.356
3.2140	19.359
3.2120	19.344
3.2100	19.334
3.2080	19.315
3.2060	19.281
3.2040	19.253
3.2021	19.265
3.2001	19.287
3.1981	19.242
3.1961	19.216
3.1942	19.216
3.1922	19.173
3.1902	19.175
3.1883	19.194
3.1863	19.200
3.1844	19.188
3.1824	19.184
3.1805	19.165
3.1785	19.153
3.1766	19.164
3.1746	19.143
3.1727	19.109
3.1707	19.122
3.1688	19.124
3.1669	19.084
3.1649	19.073
3.1630	19.085
3.1611	19.071
3.1591	19.049
3.1572	19.059
3.1553	19.045
3.1534	19.028
3.1515	19.030
3.1495	19.027
3.1476	18.986
3.1457	18.985
3.1438	18.994
3.1419	18.983
3.1400	18.989
3.1381	18.956
3.1362	18.931
3.1343	18.953
3.1324	18.942
3.1305	18.926
3.1286	18.915
3.1268	18.891
3.1249	18.899
3.1230	18.921
3.1211	18.910
3.1192	18.869
3.1174	18.855
3.1155	18.851
3.1136	18.854
3.1117	18.868
3.1099	18.842
3.1080	18.819
3.1061	18.834
3.1043	18.849
3.1024	18.847
3.1006	18.817
3.0987	18.818
3.0969	18.779
3.0950	18.716
3.0932	18.708
3.0913	18.752
3.0895	18.771
3.0876	18.763
3.0858	18.732
3.0840	18.717
3.0821	18.743
3.0803	18.739
3.0785	18.705
3.0766	18.695
3.0748	18.670
3.0730	18.670
3.0712	18.687
3.0694	18.631
3.0675	18.621
3.0657	18.641
3.0639	18.662
3.0621	18.681
3.0603	18.661
3.0585	18.631
3.0567	18.592
3.0549	18.577
3.0531	18.596
3.0513	18.608
3.0495	18.618
3.0477	18.577
3.0459	18.533
3.0441	18.560
3.0423	18.596
3.0406	18.563
3.0388	18.532
3.0370	18.543
3.0352	18.545
3.0334	18.524
3.0317	18.513
3.0299	18.510
3.0281	18.496
3.0264	18.474
3.0246	18.475
3.0228	18.470
3.0211	18.434
3.0193	18.456
3.0176	18.454
3.0158	18.408
3.0140	18.389
3.0123	18.413
3.0105	18.402
3.0088	18.364
3.0070	18.352
3.0053	18.330
3.0036	18.345
3.0018	18.338
3.0001	18.350
2.9984	18.347
2.9966	18.320
2.9949	18.313
2.9932	18.300
2.9914	18.304
2.9897	18.269
2.9880	18.236
2.9863	18.252
2.9845	18.271
2.9828	18.281
2.9811	18.294
2.9794	18.269
2.9777	18.236
2.9760	18.210
2.9743	18.189
2.9726	18.209
2.9709	18.227
2.9692	18.199
2.9675	18.184
2.9658	18.198
2.9641	18.201
2.9624	18.180
2.9607	18.142
2.9590	18.139
2.9573	18.144
2.9556	18.151
2.9539	18.165
2.9523	18.147
2.9506	18.123
2.9489	18.095
2.9472	18.079
2.9455	18.097
2.9439	18.107
2.9422	18.108
2.9405	18.093
2.9389	18.059
2.9372	18.049
2.9355	18.050
2.9339	18.046
2.9322	18.040
2.9306	18.059
2.9289	18.059
2.9272	18.023
2.9256	18.025
2.9239	18.037
2.9223	18.013
2.9207	18.013
2.9190	18.014
2.9174	17.988
2.9157	17.984
2.9141	17.980
2.9124	17.988
2.9108	17.963
2.9092	17.942
2.9075	17.963
2.9059	17.990
2.9043	17.947
2.9027	17.899
2.9010	17.916
2.8994	17.940
2.8978	17.935
2.8962	17.918
2.8946	17.903
2.8929	17.906
2.8913	17.889
2.8897	17.899
2.8881	17.894
2.8865	17.899
2.8849	17.906
2.8833	17.898
2.8817	17.853
2.8801	17.837
2.8785	17.851
2.8769	17.858
2.8753	17.844
2.8737	17.850
2.8721	17.855
2.8705	17.840
2.8689	17.814
2.8673	17.809
2.8658	17.818
2.8642	17.825
2.8626	17.807
2.8610	17.783
2.8594	17.748
2.8579	17.758
2.8563	17.786
2.8547	17.768
2.8531	17.757
2.8516	17.759
2.8500	17.755
2.8484	17.733
2.8469	17.719
2.8453	17.750
2.8437	17.738
2.8422	17.703
2.8406	17.697
2.8391	17.717
2.8375	17.707
2.8360	17.731
2.8344	17.738
2.8329	17.710
2.8313	17.702
2.8298	17.726
2.8282	17.707
2.8267	17.676
2.8252	17.680
2.8236	17.685
2.8221	17.675
2.8205	17.663
2.8190	17.678
2.8175	17.706
2.8159	17.697
2.8144	17.660
2.8129	17.684
2.8114	17.703
2.8098	17.679
2.8083	17.660
2.8068	17.670
2.8053	17.656
2.8038	17.636
2.8022	17.669
2.8007	17.735
2.7992	17.756
2.7977	17.712
2.7962	17.700
2.7947	17.735
2.7932	17.758
2.7917	17.746
2.7902	17.759
2.7887	17.766
2.7872	17.762
2.7857	17.769
2.7842	17.786
2.7827	17.767
2.7812	17.784
2.7797	17.819
2.7782	17.838
2.7767	17.846
2.7752	17.870
2.7738	17.866
2.7723	17.839
2.7708	17.808
2.7693	17.852
2.7678	17.897
2.7664	17.908
2.7649	17.932
2.7634	17.934
2.7619	17.922
2.7605	17.965
2.7590	18.008
2.7575	18.015
2.7561	18.007
2.7546	18.029
2.7531	18.061
2.7517	18.060
2.7502	18.056
2.7488	18.063
2.7473	18.087
2.7458	18.126
2.7444	18.163
2.7429	18.195
2.7415	18.164
2.7400	18.120
2.7386	18.131
2.7371	18.146
2.7357	18.169
2.7343	18.189
2.7328	18.215
2.7314	18.234
2.7299	18.246
2.7285	18.256
2.7271	18.270
2.7256	18.239
2.7242	18.202
2.7228	18.230
2.7213	18.250
2.7199	18.262
2.7185	18.281
2.7171	18.300
2.7156	18.352
2.7142	18.351
2.7128	18.319
2.7114	18.281
2.7100	18.289
2.7085	18.324
2.7071	18.335
2.7057	18.339
2.7043	18.330
2.7029	18.319
2.7015	18.302
2.7001	18.294
2.6987	18.302
2.6973	18.302
2.6959	18.291
2.6945	18.275
2.6931	18.232
2.6917	18.258
2.6903	18.311
2.6889	18.284
2.6875	18.244
2.6861	18.248
2.6847	18.251
2.6833	18.228
2.6819	18.214
2.6805	18.207
2.6791	18.195
2.6778	18.199
2.6764	18.188
2.6750	18.193
2.6736	18.198
2.6722	18.156
2.6709	18.091
2.6695	18.119
2.6681	18.174
2.6667	18.187
2.6654	18.140
2.6640	18.106
2.6626	18.143
2.6613	18.171
2.6599	18.169
2.6585	18.129
2.6572	18.129
2.6558	18.132
2.6545	18.116
2.6531	18.077
2.6517	18.092
2.6504	18.115
2.6490	18.084
2.6477	18.060
2.6463	18.038
2.6450	18.029
2.6436	18.036
2.6423	18.035
2.6409	18.007
2.6396	17.995
2.6382	18.006
2.6369	17.997
2.6356	17.975
2.6342	17.968
2.6329	17.970
2.6315	17.956
2.6302	17.920
2.6289	17.911
2.6275	17.912
2.6262	17.882
2.6249	17.894
2.6236	17.921
2.6222	17.930
2.6209	17.904
2.6196	17.877
2.6183	17.855
2.6169	17.839
2.6156	17.832
2.6143	17.838
2.6130	17.858
2.6117	17.845
2.6103	17.808
2.6090	17.781
2.6077	17.760
2.6064	17.733
2.6051	17.723
2.6038	17.741
2.6025	17.765
2.6012	17.736
2.5999	17.723
2.5986	17.747
2.5973	17.749
2.5960	17.689
2.5947	17.618
2.5934	17.643
2.5921	17.698
2.5908	17.686
2.5895	17.684
2.5882	17.680
2.5869	17.635
2.5856	17.605
2.5843	17.612
2.5830	17.611
2.5817	17.613
2.5805	17.596
2.5792	17.613
2.5779	17.600
2.5766	17.591
2.5753	17.586
2.5741	17.553
2.5728	17.525
2.5715	17.540
2.5702	17.541
2.5690	17.524
2.5677	17.512
2.5664	17.508
2.5651	17.469
2.5639	17.472
2.5626	17.468
2.5613	17.435
2.5601	17.442
2.5588	17.449
2.5575	17.449
2.5563	17.438
2.5550	17.404
2.5538	17.390
2.5525	17.389
2.5513	17.410
2.5500	17.394
2.5487	17.332
2.5475	17.327
2.5462	17.359
2.5450	17.359
2.5437	17.356
2.5425	17.338
2.5413	17.306
2.5400	17.288
2.5388	17.286
2.5375	17.309
2.5363	17.305
2.5350	17.275
2.5338	17.281
2.5326	17.284
2.5313	17.256
2.5301	17.229
2.5289	17.226
2.5276	17.216
2.5264	17.223
2.5252	17.226
2.5239	17.195
2.5227	17.176
2.5215	17.167
2.5202	17.174
2.5190	17.165
2.5178	17.131
2.5166	17.128
2.5154	17.108
2.5141	17.114
2.5129	17.097
2.5117	17.050
2.5105	17.048
2.5093	17.108
2.5081	17.094
2.5068	17.042
2.5056	17.024
2.5044	17.050
2.5032	17.034
2.5020	17.022
2.5008	17.022
2.4996	17.000
2.4984	16.969
2.4972	16.968
2.4960	16.962
2.4948	16.940
2.4936	16.935
2.4924	16.937
2.4912	16.932
2.4900	16.937
2.4888	16.915
2.4876	16.904
2.4864	16.897
2.4852	16.890
2.4840	16.875
2.4828	16.867
2.4816	16.861
2.4805	16.846
2.4793	16.829
2.4781	16.820
2.4769	16.829
2.4757	16.829
2.4745	16.794
2.4734	16.758
2.4722	16.755
2.4710	16.781
2.4698	16.801
2.4686	16.779
2.4675	16.758
2.4663	16.735
2.4651	16.713
2.4640	16.722
2.4628	16.738
2.4616	16.725
2.4604	16.674
2.4593	16.639
2.4581	16.649
2.4569	16.653
2.4558	16.662
2.4546	16.663
2.4535	16.634
2.4523	16.627
2.4511	16.659
2.4500	16.641
2.4488	16.582
2.4477	16.590
2.4465	16.601
2.4454	16.559
2.4442	16.516
2.4431	16.541
2.4419	16.565
2.4408	16.517
2.4396	16.491
2.4385	16.514
2.4373	16.506
2.4362	16.486
2.4350	16.491
2.4339	16.489
2.4327	16.454
2.4316	16.450
2.4305	16.455
2.4293	16.433
2.4282	16.441
2.4270	16.433
2.4259	16.411
2.4248	16.428
2.4236	16.430
2.4225	16.396
2.4214	16.362
2.4202	16.355
2.4191	16.351
2.4180	16.353
2.4169	16.327
2.4157	16.318
2.4146	16.350
2.4135	16.342
2.4124	16.300
2.4112	16.272
2.4101	16.266
2.4090	16.260
2.4079	16.262
2.4068	16.254
2.4056	16.222
2.4045	16.216
2.4034	16.236
2.4023	16.214
2.4012	16.195
2.4001	16.215
2.3990	16.221
2.3979	16.220
2.3967	16.215
2.3956	16.200
2.3945	16.188
2.3934	16.173
2.3923	16.139
2.3912	16.157
2.3901	16.182
2.3890	16.151
2.3879	16.110
2.3868	16.094
2.3857	16.087
2.3846	16.103
2.3835	16.129
2.3824	16.128
2.3813	16.061
2.3802	16.048
2.3791	16.076
2.3781	16.019
2.3770	16.010
2.3759	16.062
2.3748	16.053
2.3737	16.049
2.3726	16.026
2.3715	16.020
2.3704	16.035
2.3694	16.000
2.3683	15.981
2.3672	15.972
2.3661	15.949
2.3650	15.939
2.3640	15.940
2.3629	15.919
2.3618	15.898
2.3607	15.913
2.3597	15.927
2.3586	15.936
2.3575	15.912
2.3564	15.911
2.3554	15.908
2.3543	15.900
2.3532	15.872
2.3522	15.853
2.3511	15.864
2.3500	15.900
2.3490	15.899
2.3479	15.845
2.3468	15.833
2.3458	15.845
2.3447	15.850
2.3436	15.836
2.3426	15.769
2.3415	15.784
2.3405	15.818
2.3394	15.797
2.3384	15.784
2.3373	15.782
2.3363	15.773
2.3352	15.742
2.3342	15.732
2.3331	15.746
2.3321	15.725
2.3310	15.734
2.3300	15.746
2.3289	15.707
2.3279	15.690
2.3268	15.715
2.3258	15.688
2.3247	15.667
2.3237	15.653
2.3226	15.637
2.3216	15.671
2.3206	15.657
2.3195	15.658
2.3185	15.672
2.3175	15.661
2.3164	15.624
2.3154	15.620
2.3144	15.646
2.3133	15.628
2.3123	15.618
2.3113	15.604
2.3102	15.580
2.3092	15.572
2.3082	15.559
2.3071	15.563
2.3061	15.588
2.3051	15.596
2.3041	15.576
2.3030	15.508
2.3020	15.482
2.3010	15.488
2.3000	15.506
2.2990	15.559
2.2979	15.564
2.2969	15.517
2.2959	15.509
2.2949	15.498
2.2939	15.510
2.2929	15.467
2.2918	15.427
2.2908	15.423
2.2898	15.456
2.2888	15.448
2.2878	15.437
2.2868	15.455
2.2858	15.471
2.2848	15.440
2.2838	15.422
2.2828	15.417
2.2818	15.398
2.2808	15.394
2.2798	15.419
2.2787	15.395
2.2777	15.383
2.2767	15.388
2.2757	15.369
2.2747	15.367
2.2738	15.384
2.2728	15.376
2.2718	15.346
2.2708	15.345
2.2698	15.357
2.2688	15.332
2.2678	15.312
2.2668	15.326
2.2658	15.316
2.2648	15.311
2.2638	15.305
2.2628	15.286
2.2618	15.271
2.2609	15.258
2.2599	15.264
2.2589	15.264
2.2579	15.274
2.2569	15.258
2.2559	15.199
2.2550	15.187
2.2540	15.203
2.2530	15.218
2.2520	15.230
2.2510	15.220
2.2501	15.167
2.2491	15.166
2.2481	15.176
2.2471	15.167
2.2462	15.158
2.2452	15.192
2.2442	15.192
2.2433	15.138
2.2423	15.104
2.2413	15.107
2.2403	15.116
2.2394	15.090
2.2384	15.098
2.2374	15.095
2.2365	15.128
2.2355	15.127
2.2345	15.109
2.2336	15.096
2.2326	15.101
2.2317	15.063
2.2307	15.040
2.2297	15.070
2.2288	15.065
2.2278	15.066
2.2269	15.090
2.2259	15.069
2.2250	15.043
2.2240	15.036
2.2231	15.036
2.2221	15.018
2.2211	15.023
2.2202	15.028
2.2192	14.999
2.2183	14.962
2.2173	14.969
2.2164	14.988
2.2155	14.988
2.2145	14.977
2.2136	14.957
2.2126	14.948
2.2117	14.987
2.2107	14.988
2.2098	14.980
2.2088	14.991
2.2079	14.990
2.2070	14.970
2.2060	14.918
2.2051	14.931
2.2041	14.928
2.2032	14.884
2.2023	14.860
2.2013	14.891
2.2004	14.929
2.1995	14.917
2.1985	14.903
2.1976	14.905
2.1967	14.906
2.1957	14.927
2.1948	14.874
2.1939	14.826
2.1930	14.848
2.1920	14.869
2.1911	14.846
2.1902	14.829
2.1893	14.850
2.1883	14.863
2.1874	14.853
2.1865	14.899
2.1856	14.887
2.1846	14.830
2.1837	14.817
2.1828	14.833
2.1819	14.830
2.1810	14.844
2.1800	14.849
2.1791	14.820
2.1782	14.798
2.1773	14.780
2.1764	14.804
2.1755	14.782
2.1746	14.783
2.1736	14.795
2.1727	14.778
2.1718	14.746
2.1709	14.726
2.1700	14.721
2.1691	14.720
2.1682	14.733
2.1673	14.728
2.1664	14.729
2.1655	14.746
2.1646	14.748
2.1637	14.759
2.1628	14.770
2.1619	14.788
2.1610	14.747
2.1601	14.717
2.1592	14.692
2.1583	14.681
2.1574	14.678
2.1565	14.678
2.1556	14.648
2.1547	14.628
2.1538	14.668
2.1529	14.675
2.1520	14.624
2.1511	14.609
2.1502	14.672
2.1493	14.710
2.1484	14.665
2.1475	14.627
2.1466	14.599
2.1458	14.594
2.1449	14.591
2.1440	14.600
2.1431	14.594
2.1422	14.618
2.1413	14.590
2.1404	14.573
2.1396	14.542
2.1387	14.517
2.1378	14.540
2.1369	14.568
2.1360	14.614
2.1352	14.597
2.1343	14.519
2.1334	14.500
2.1325	14.528
2.1316	14.536
2.1308	14.583
2.1299	14.619
2.1290	14.582
2.1281	14.504
2.1273	14.507
2.1264	14.531
2.1255	14.542
2.1247	14.533
2.1238	14.481
2.1229	14.464
2.1220	14.494
2.1212	14.503
2.1203	14.520
2.1194	14.558
2.1186	14.479
2.1177	14.429
2.1168	14.467
2.1160	14.452
2.1151	14.467
2.1143	14.513
2.1134	14.486
2.1125	14.484
2.1117	14.521
2.1108	14.480
2.1100	14.479
2.1091	14.486
2.1082	14.436
2.1074	14.443
2.1065	14.438
2.1057	14.432
2.1048	14.435
2.1040	14.443
2.1031	14.445
2.1023	14.432
2.1014	14.419
2.1005	14.388
2.0997	14.361
2.0988	14.380
2.0980	14.446
2.0971	14.426
2.0963	14.358
2.0955	14.360
2.0946	14.389
2.0938	14.386
2.0929	14.369
2.0921	14.332
2.0912	14.300
2.0904	14.343
2.0895	14.420
2.0887	14.423
2.0879	14.349
2.0870	14.387
2.0862	14.380
2.0853	14.318
2.0845	14.334
2.0837	14.319
2.0828	14.309
2.0820	14.351
2.0812	14.309
2.0803	14.278
2.0795	14.325

