Name:  Hornblende Ca2(Fe+2,Mg)4Al(Si7Al)O22(OH,F)2
Type:  Mineral
Class:  Silicates
Subclass:  Inosilicates (Amphibole Group)
Particle Size:  fine (Less than 2 micrometers)
Sample No.:  hornblen.3
Owner:  JHU
Wavelength Range:  IR
Origin:  Calumet Island, Ottowa River, Canada via the Smithsaonian 
(sample no. NMNH 78662)
Description: Sample was a cluster of several large, deep green 
crystals. A small amount of contamination was found in thin veins 
along cleavage planes. Microscopic examination revealed newr purity 
with less than 1% impurities of low index veins. An index of 
refraction of <1.64 and pleochroism (green to greenish brown) 
indicated that this is probably magnesian hornblende.
Measurement: transmission
First Column:  X
Second Column:  Y  
X Units:  Wavelength (micrometers)
Y Units:  transmittance (percent)
First X Value:  25.044
Last X Value:  2.0795
Number of X Values:  2287
Additional Information: hornbl3a.txt

25.044	58.785
24.924	57.801
24.805	57.519
24.686	57.937
24.569	57.937
24.454	57.191
24.339	55.203
24.225	53.613
24.112	52.359
24.001	51.211
23.890	50.640
23.781	50.719
23.672	50.939
23.564	50.875
23.458	50.211
23.352	49.033
23.247	47.525
23.144	45.703
23.041	43.254
22.939	41.025
22.838	39.289
22.738	37.426
22.638	36.039
22.540	35.238
22.442	35.166
22.345	35.133
22.250	34.811
22.154	34.148
22.060	33.393
21.967	32.357
21.874	31.473
21.782	31.135
21.691	31.133
21.601	31.476
21.511	32.140
21.422	33.090
21.334	34.137
21.247	35.189
21.160	36.592
21.074	38.002
20.988	39.393
20.904	41.060
20.820	43.074
20.737	45.293
20.654	47.824
20.572	50.298
20.491	52.337
20.410	53.320
20.330	53.398
20.251	52.609
20.172	51.324
20.094	49.580
20.016	47.764
19.939	46.051
19.863	44.637
19.787	43.605
19.712	43.131
19.637	43.215
19.563	43.852
19.489	44.754
19.416	45.961
19.344	47.387
19.272	48.657
19.201	49.806
19.130	50.602
19.059	51.243
18.990	51.773
18.920	52.398
18.851	53.161
18.783	53.751
18.715	54.201
18.648	54.531
18.581	54.801
18.515	54.942
18.449	55.443
18.384	56.239
18.319	57.541
18.254	59.020
18.190	60.824
18.126	62.580
18.063	64.384
18.001	66.101
17.938	67.657
17.876	69.052
17.815	70.430
17.754	71.609
17.693	72.551
17.633	73.552
17.573	74.470
17.514	75.269
17.455	76.044
17.396	76.849
17.338	77.561
17.280	78.246
17.223	79.032
17.166	79.601
17.109	80.145
17.053	80.735
16.997	81.423
16.942	81.894
16.886	82.406
16.832	82.916
16.777	83.324
16.723	83.694
16.669	84.130
16.616	84.488
16.563	84.888
16.510	85.333
16.458	85.600
16.406	85.849
16.354	86.097
16.302	86.400
16.251	86.579
16.200	86.827
16.150	87.084
16.100	87.236
16.050	87.321
16.000	87.418
15.951	87.347
15.902	87.089
15.854	86.685
15.805	86.134
15.757	85.297
15.710	84.304
15.662	83.020
15.615	81.932
15.568	81.221
15.521	81.135
15.475	81.446
15.429	81.812
15.383	81.856
15.338	81.447
15.292	80.674
15.248	79.945
15.203	79.362
15.158	79.043
15.114	79.024
15.070	79.422
15.027	79.929
14.983	80.556
14.940	80.982
14.897	81.153
14.854	80.732
14.812	79.934
14.770	78.658
14.728	77.141
14.686	75.598
14.645	74.378
14.603	73.644
14.562	73.584
14.521	74.299
14.481	75.552
14.441	77.064
14.400	78.592
14.361	80.071
14.321	81.381
14.281	82.403
14.242	83.190
14.203	83.866
14.164	84.369
14.126	84.705
14.087	85.039
14.049	85.211
14.011	85.292
13.973	85.282
13.936	85.032
13.899	84.282
13.861	83.416
13.824	82.748
13.788	82.590
13.751	82.725
13.715	82.812
13.679	82.547
13.643	81.964
13.607	81.246
13.571	80.450
13.536	79.811
13.500	79.069
13.465	78.055
13.430	76.625
13.396	74.857
13.361	72.928
13.327	70.701
13.293	68.391
13.259	66.729
13.225	66.620
13.191	68.076
13.158	70.709
13.124	73.816
13.091	76.814
13.058	79.298
13.026	81.470
12.993	83.185
12.960	84.404
12.928	85.573
12.896	86.622
12.864	87.490
12.832	88.145
12.800	88.803
12.769	89.184
12.737	89.657
12.706	89.983
12.675	90.055
12.644	90.137
12.614	90.204
12.583	90.146
12.552	90.045
12.522	89.956
12.492	89.764
12.462	89.397
12.432	89.020
12.402	88.627
12.373	88.191
12.343	87.568
12.314	87.030
12.285	86.476
12.256	85.953
12.227	85.380
12.198	84.784
12.169	84.189
12.141	83.636
12.113	82.951
12.084	82.260
12.056	81.611
12.028	80.950
12.000	80.223
11.973	79.451
11.945	78.735
11.918	77.985
11.890	77.265
11.863	76.580
11.836	75.977
11.809	75.292
11.782	74.629
11.755	74.047
11.729	73.434
11.702	72.792
11.676	72.074
11.650	71.395
11.624	70.731
11.598	70.045
11.572	69.416
11.546	68.739
11.520	67.970
11.495	67.170
11.469	66.351
11.444	65.473
11.419	64.595
11.394	63.728
11.369	62.884
11.344	62.008
11.319	61.096
11.294	60.205
11.270	59.297
11.245	58.278
11.221	57.301
11.197	56.389
11.173	55.318
11.149	54.268
11.125	53.221
11.101	52.020
11.077	50.756
11.054	49.407
11.030	48.021
11.007	46.580
10.983	45.060
10.960	43.493
10.937	42.094
10.914	40.881
10.891	40.117
10.868	39.893
10.846	40.248
10.823	41.520
10.800	43.170
10.778	44.559
10.755	45.295
10.733	45.261
10.711	44.338
10.689	42.864
10.667	41.453
10.645	39.647
10.623	37.934
10.602	36.741
10.580	35.398
10.558	34.336
10.537	33.981
10.516	33.980
10.494	34.235
10.473	34.813
10.452	35.609
10.431	36.452
10.410	37.379
10.389	38.228
10.368	38.963
10.348	39.515
10.327	39.971
10.306	40.264
10.286	40.361
10.266	40.396
10.245	40.270
10.225	39.935
10.205	39.427
10.185	38.757
10.165	37.897
10.145	36.943
10.125	35.999
10.106	35.140
10.086	34.543
10.066	34.287
10.047	34.447
10.027	34.949
10.008	35.747
9.9887	36.654
9.9695	37.600
9.9504	38.463
9.9313	39.300
9.9123	40.045
9.8934	40.760
9.8746	41.479
9.8558	42.168
9.8371	42.972
9.8185	43.974
9.7999	45.228
9.7814	46.697
9.7630	48.359
9.7447	50.012
9.7264	51.283
9.7082	51.993
9.6900	51.984
9.6719	51.397
9.6539	50.466
9.6360	49.751
9.6181	49.323
9.6003	49.136
9.5825	48.957
9.5649	48.754
9.5472	48.507
9.5297	48.230
9.5122	48.001
9.4948	47.789
9.4774	47.672
9.4601	47.573
9.4429	47.544
9.4257	47.593
9.4086	47.797
9.3916	48.170
9.3746	48.586
9.3577	49.125
9.3408	49.675
9.3240	50.246
9.3073	50.729
9.2906	51.121
9.2740	51.393
9.2574	51.535
9.2409	51.520
9.2245	51.286
9.2081	50.821
9.1918	50.166
9.1755	49.417
9.1593	48.575
9.1431	47.757
9.1270	47.047
9.1110	46.486
9.0950	46.106
9.0791	45.919
9.0632	45.876
9.0474	46.049
9.0316	46.451
9.0159	47.044
9.0003	47.817
8.9847	48.763
8.9691	49.926
8.9536	51.202
8.9382	52.531
8.9228	53.813
8.9075	54.893
8.8922	55.680
8.8770	56.227
8.8618	56.857
8.8467	57.671
8.8316	58.602
8.8166	59.588
8.8016	60.558
8.7867	61.487
8.7718	62.376
8.7570	63.235
8.7422	64.021
8.7275	64.820
8.7129	65.524
8.6982	66.235
8.6837	66.902
8.6692	67.554
8.6547	68.137
8.6403	68.708
8.6259	69.254
8.6116	69.768
8.5973	70.180
8.5830	70.575
8.5688	70.973
8.5547	71.346
8.5406	71.657
8.5266	71.966
8.5126	72.290
8.4986	72.572
8.4847	72.911
8.4708	73.236
8.4570	73.546
8.4432	73.838
8.4295	74.126
8.4158	74.441
8.4022	74.753
8.3886	75.048
8.3750	75.341
8.3615	75.620
8.3481	75.897
8.3347	76.175
8.3213	76.466
8.3079	76.748
8.2946	77.052
8.2814	77.293
8.2682	77.549
8.2550	77.792
8.2419	78.075
8.2288	78.283
8.2158	78.520
8.2028	78.731
8.1898	78.935
8.1769	79.119
8.1640	79.352
8.1512	79.567
8.1384	79.736
8.1256	79.908
8.1129	80.083
8.1002	80.253
8.0876	80.429
8.0750	80.634
8.0624	80.802
8.0499	80.960
8.0374	81.160
8.0250	81.343
8.0126	81.519
8.0002	81.743
7.9879	81.967
7.9756	82.166
7.9634	82.402
7.9512	82.690
7.9390	82.914
7.9268	83.124
7.9147	83.281
7.9027	83.386
7.8906	83.420
7.8786	83.558
7.8667	83.661
7.8548	83.751
7.8429	83.850
7.8310	84.027
7.8192	84.156
7.8075	84.298
7.7957	84.418
7.7840	84.536
7.7723	84.665
7.7607	84.789
7.7491	84.960
7.7375	85.062
7.7260	85.180
7.7145	85.296
7.7031	85.396
7.6916	85.508
7.6802	85.626
7.6689	85.765
7.6575	85.851
7.6462	85.973
7.6350	86.087
7.6238	86.196
7.6126	86.306
7.6014	86.463
7.5903	86.593
7.5792	86.697
7.5681	86.826
7.5571	86.927
7.5461	87.026
7.5351	87.110
7.5242	87.224
7.5133	87.278
7.5024	87.360
7.4916	87.441
7.4807	87.496
7.4700	87.564
7.4592	87.648
7.4485	87.756
7.4378	87.811
7.4272	87.923
7.4165	88.035
7.4059	88.092
7.3954	88.169
7.3848	88.211
7.3743	88.279
7.3639	88.332
7.3534	88.413
7.3430	88.475
7.3326	88.619
7.3223	88.702
7.3119	88.759
7.3016	88.809
7.2914	88.911
7.2811	89.008
7.2709	89.061
7.2607	89.135
7.2506	89.186
7.2404	89.194
7.2303	89.111
7.2203	89.162
7.2102	89.397
7.2002	89.631
7.1902	89.824
7.1803	90.005
7.1703	90.136
7.1604	90.254
7.1506	90.388
7.1407	90.458
7.1309	90.496
7.1211	90.559
7.1113	90.616
7.1016	90.626
7.0919	90.615
7.0822	90.654
7.0725	90.659
7.0629	90.727
7.0533	90.785
7.0437	90.860
7.0341	90.907
7.0246	90.979
7.0151	91.050
7.0056	91.128
6.9962	91.226
6.9867	91.351
6.9773	91.444
6.9679	91.551
6.9586	91.669
6.9493	91.759
6.9400	91.826
6.9307	91.943
6.9214	92.010
6.9122	92.047
6.9030	92.090
6.8938	92.165
6.8847	92.188
6.8755	92.230
6.8664	92.282
6.8573	92.289
6.8483	92.311
6.8393	92.364
6.8302	92.432
6.8213	92.464
6.8123	92.521
6.8034	92.591
6.7944	92.654
6.7855	92.683
6.7767	92.751
6.7678	92.793
6.7590	92.853
6.7502	92.937
6.7414	92.995
6.7327	93.024
6.7239	93.128
6.7152	93.247
6.7065	93.317
6.6979	93.383
6.6892	93.475
6.6806	93.531
6.6720	93.584
6.6634	93.652
6.6549	93.717
6.6464	93.772
6.6378	93.860
6.6294	93.930
6.6209	93.994
6.6124	94.054
6.6040	94.145
6.5956	94.191
6.5872	94.248
6.5789	94.327
6.5705	94.373
6.5622	94.397
6.5539	94.444
6.5456	94.517
6.5374	94.550
6.5292	94.596
6.5209	94.633
6.5128	94.633
6.5046	94.645
6.4964	94.719
6.4883	94.751
6.4802	94.771
6.4721	94.817
6.4640	94.845
6.4560	94.841
6.4480	94.878
6.4399	94.917
6.4320	94.952
6.4240	94.946
6.4160	94.990
6.4081	95.000
6.4002	94.978
6.3923	94.959
6.3844	94.985
6.3766	94.972
6.3687	94.958
6.3609	94.972
6.3531	94.967
6.3454	94.961
6.3376	94.950
6.3299	94.940
6.3221	94.935
6.3144	94.927
6.3068	94.906
6.2991	94.866
6.2914	94.822
6.2838	94.796
6.2762	94.735
6.2686	94.693
6.2611	94.657
6.2535	94.645
6.2460	94.554
6.2385	94.498
6.2310	94.448
6.2235	94.397
6.2160	94.288
6.2086	94.218
6.2011	94.109
6.1937	93.985
6.1863	93.865
6.1790	93.772
6.1716	93.663
6.1643	93.601
6.1570	93.593
6.1496	93.571
6.1424	93.611
6.1351	93.736
6.1278	93.819
6.1206	93.812
6.1134	93.806
6.1062	93.812
6.0990	93.832
6.0918	93.928
6.0847	94.031
6.0776	94.145
6.0704	94.270
6.0633	94.440
6.0563	94.626
6.0492	94.863
6.0421	95.108
6.0351	95.373
6.0281	95.640
6.0211	95.917
6.0141	96.210
6.0071	96.385
6.0002	96.600
5.9932	96.754
5.9863	96.850
5.9794	96.874
5.9725	96.874
5.9657	96.832
5.9588	96.746
5.9520	96.663
5.9451	96.612
5.9383	96.541
5.9315	96.451
5.9247	96.457
5.9180	96.453
5.9112	96.462
5.9045	96.506
5.8978	96.553
5.8911	96.593
5.8844	96.616
5.8777	96.678
5.8711	96.725
5.8644	96.760
5.8578	96.802
5.8512	96.827
5.8446	96.859
5.8380	96.942
5.8314	97.003
5.8249	97.019
5.8184	97.089
5.8118	97.156
5.8053	97.229
5.7988	97.252
5.7923	97.306
5.7859	97.337
5.7794	97.357
5.7730	97.408
5.7666	97.452
5.7602	97.477
5.7538	97.510
5.7474	97.583
5.7410	97.621
5.7347	97.647
5.7283	97.692
5.7220	97.707
5.7157	97.711
5.7094	97.734
5.7031	97.776
5.6969	97.784
5.6906	97.788
5.6844	97.773
5.6782	97.771
5.6719	97.763
5.6657	97.785
5.6596	97.818
5.6534	97.827
5.6472	97.863
5.6411	97.899
5.6349	97.927
5.6288	97.937
5.6227	97.949
5.6166	97.952
5.6106	97.990
5.6045	98.034
5.5984	98.066
5.5924	98.082
5.5864	98.087
5.5804	98.129
5.5744	98.130
5.5684	98.166
5.5624	98.172
5.5564	98.175
5.5505	98.172
5.5445	98.227
5.5386	98.274
5.5327	98.309
5.5268	98.341
5.5209	98.359
5.5151	98.380
5.5092	98.378
5.5033	98.401
5.4975	98.397
5.4917	98.414
5.4859	98.451
5.4801	98.453
5.4743	98.448
5.4685	98.480
5.4628	98.494
5.4570	98.474
5.4513	98.491
5.4455	98.536
5.4398	98.567
5.4341	98.589
5.4284	98.628
5.4228	98.648
5.4171	98.651
5.4114	98.694
5.4058	98.736
5.4002	98.722
5.3945	98.719
5.3889	98.737
5.3833	98.738
5.3778	98.730
5.3722	98.751
5.3666	98.740
5.3611	98.719
5.3555	98.719
5.3500	98.745
5.3445	98.741
5.3390	98.765
5.3335	98.787
5.3280	98.791
5.3225	98.765
5.3171	98.805
5.3116	98.830
5.3062	98.835
5.3008	98.839
5.2954	98.859
5.2900	98.854
5.2846	98.874
5.2792	98.908
5.2738	98.912
5.2684	98.898
5.2631	98.925
5.2578	98.951
5.2524	98.953
5.2471	99.005
5.2418	99.036
5.2365	99.050
5.2312	99.077
5.2260	99.127
5.2207	99.111
5.2154	99.136
5.2102	99.155
5.2050	99.164
5.1998	99.151
5.1945	99.193
5.1893	99.224
5.1842	99.226
5.1790	99.206
5.1738	99.212
5.1686	99.188
5.1635	99.172
5.1584	99.141
5.1532	99.129
5.1481	99.110
5.1430	99.116
5.1379	99.107
5.1328	99.098
5.1277	99.094
5.1227	99.115
5.1176	99.152
5.1126	99.162
5.1075	99.165
5.1025	99.167
5.0975	99.198
5.0925	99.188
5.0875	99.198
5.0825	99.179
5.0775	99.174
5.0726	99.195
5.0676	99.181
5.0627	99.173
5.0577	99.202
5.0528	99.245
5.0479	99.272
5.0430	99.315
5.0380	99.326
5.0332	99.318
5.0283	99.314
5.0234	99.315
5.0185	99.333
5.0137	99.349
5.0088	99.376
5.0040	99.377
4.9992	99.401
4.9944	99.419
4.9896	99.407
4.9848	99.417
4.9800	99.459
4.9752	99.468
4.9704	99.471
4.9657	99.464
4.9609	99.463
4.9562	99.469
4.9514	99.451
4.9467	99.480
4.9420	99.509
4.9373	99.514
4.9326	99.528
4.9279	99.522
4.9232	99.544
4.9186	99.548
4.9139	99.583
4.9092	99.591
4.9046	99.574
4.9000	99.594
4.8953	99.582
4.8907	99.597
4.8861	99.620
4.8815	99.604
4.8769	99.570
4.8723	99.592
4.8678	99.613
4.8632	99.607
4.8586	99.603
4.8541	99.616
4.8495	99.623
4.8450	99.641
4.8405	99.678
4.8360	99.669
4.8315	99.666
4.8270	99.645
4.8225	99.648
4.8180	99.661
4.8135	99.654
4.8090	99.650
4.8046	99.663
4.8001	99.674
4.7957	99.701
4.7913	99.738
4.7868	99.730
4.7824	99.726
4.7780	99.745
4.7736	99.753
4.7692	99.748
4.7648	99.766
4.7605	99.803
4.7561	99.799
4.7517	99.819
4.7474	99.819
4.7431	99.844
4.7387	99.820
4.7344	99.829
4.7301	99.841
4.7258	99.833
4.7215	99.828
4.7172	99.836
4.7129	99.852
4.7086	99.865
4.7043	99.891
4.7000	99.897
4.6958	99.878
4.6915	99.890
4.6873	99.918
4.6831	99.938
4.6788	99.946
4.6746	99.941
4.6704	99.926
4.6662	99.941
4.6620	99.956
4.6578	99.962
4.6536	99.995
4.6495	100.03
4.6453	100.02
4.6411	100.00
4.6370	100.02
4.6328	100.02
4.6287	100.00
4.6246	100.02
4.6205	100.02
4.6163	99.979
4.6122	100.06
4.6081	100.17
4.6040	100.15
4.6000	100.10
4.5959	100.11
4.5918	100.10
4.5877	100.10
4.5837	100.09
4.5796	100.06
4.5756	100.04
4.5716	100.05
4.5675	100.08
4.5635	100.11
4.5595	100.12
4.5555	100.11
4.5515	100.09
4.5475	100.11
4.5435	100.13
4.5395	100.13
4.5356	100.11
4.5316	100.11
4.5276	100.10
4.5237	100.11
4.5197	100.11
4.5158	100.09
4.5119	100.07
4.5080	100.08
4.5040	100.09
4.5001	100.08
4.4962	100.05
4.4923	100.07
4.4884	100.10
4.4846	100.12
4.4807	100.10
4.4768	100.10
4.4730	100.10
4.4691	100.10
4.4652	100.08
4.4614	100.08
4.4576	100.07
4.4537	100.04
4.4499	100.03
4.4461	100.02
4.4423	100.05
4.4385	100.04
4.4347	100.03
4.4309	100.00
4.4271	100.03
4.4233	100.06
4.4196	100.07
4.4158	100.03
4.4120	100.03
4.4083	100.04
4.4045	100.03
4.4008	100.04
4.3971	100.04
4.3934	100.01
4.3896	100.02
4.3859	100.04
4.3822	100.06
4.3785	100.04
4.3748	100.01
4.3711	100.02
4.3674	99.987
4.3638	100.00
4.3601	100.02
4.3564	99.989
4.3528	99.980
4.3491	99.980
4.3455	99.952
4.3418	99.976
4.3382	100.01
4.3346	99.991
4.3310	99.960
4.3273	99.969
4.3237	99.985
4.3201	100.01
4.3165	100.01
4.3129	100.00
4.3094	100.01
4.3058	99.981
4.3022	99.952
4.2986	99.942
4.2951	99.939
4.2915	99.944
4.2880	99.991
4.2844	99.962
4.2809	99.975
4.2774	99.991
4.2738	99.989
4.2703	99.970
4.2668	99.950
4.2633	99.950
4.2598	99.942
4.2563	99.939
4.2528	99.951
4.2493	99.971
4.2458	99.957
4.2424	99.955
4.2389	99.956
4.2354	99.970
4.2320	99.966
4.2285	99.915
4.2251	99.901
4.2216	99.899
4.2182	99.902
4.2148	99.898
4.2113	99.887
4.2079	99.887
4.2045	99.878
4.2011	99.842
4.1977	99.859
4.1943	99.850
4.1909	99.864
4.1875	99.857
4.1841	99.848
4.1808	99.873
4.1774	99.886
4.1740	99.879
4.1707	99.872
4.1673	99.861
4.1640	99.870
4.1606	99.838
4.1573	99.837
4.1540	99.812
4.1506	99.795
4.1473	99.802
4.1440	99.816
4.1407	99.843
4.1374	99.862
4.1341	99.841
4.1308	99.832
4.1275	99.836
4.1242	99.796
4.1209	99.790
4.1177	99.800
4.1144	99.773
4.1111	99.744
4.1079	99.769
4.1046	99.782
4.1014	99.768
4.0981	99.753
4.0949	99.781
4.0917	99.756
4.0884	99.718
4.0852	99.733
4.0820	99.766
4.0788	99.779
4.0756	99.761
4.0724	99.734
4.0692	99.738
4.0660	99.727
4.0628	99.717
4.0596	99.681
4.0565	99.670
4.0533	99.681
4.0501	99.696
4.0470	99.685
4.0438	99.694
4.0406	99.709
4.0375	99.707
4.0344	99.721
4.0312	99.706
4.0281	99.675
4.0250	99.660
4.0218	99.688
4.0187	99.678
4.0156	99.621
4.0125	99.630
4.0094	99.635
4.0063	99.615
4.0032	99.608
4.0001	99.594
3.9970	99.547
3.9940	99.536
3.9909	99.547
3.9878	99.526
3.9847	99.489
3.9817	99.469
3.9786	99.447
3.9756	99.454
3.9725	99.447
3.9695	99.437
3.9665	99.431
3.9634	99.440
3.9604	99.468
3.9574	99.457
3.9544	99.441
3.9513	99.488
3.9483	99.524
3.9453	99.541
3.9423	99.531
3.9393	99.529
3.9363	99.545
3.9333	99.531
3.9304	99.521
3.9274	99.510
3.9244	99.509
3.9214	99.545
3.9185	99.548
3.9155	99.475
3.9126	99.451
3.9096	99.471
3.9067	99.480
3.9037	99.491
3.9008	99.500
3.8979	99.492
3.8949	99.478
3.8920	99.460
3.8891	99.449
3.8862	99.438
3.8833	99.395
3.8804	99.365
3.8775	99.354
3.8746	99.343
3.8717	99.323
3.8688	99.299
3.8659	99.302
3.8630	99.318
3.8601	99.341
3.8573	99.348
3.8544	99.311
3.8515	99.320
3.8487	99.365
3.8458	99.379
3.8430	99.350
3.8401	99.342
3.8373	99.339
3.8344	99.339
3.8316	99.315
3.8288	99.289
3.8259	99.307
3.8231	99.321
3.8203	99.301
3.8175	99.289
3.8147	99.250
3.8119	99.231
3.8091	99.211
3.8063	99.212
3.8035	99.251
3.8007	99.248
3.7979	99.215
3.7951	99.229
3.7924	99.228
3.7896	99.248
3.7868	99.266
3.7841	99.300
3.7813	99.300
3.7785	99.272
3.7758	99.238
3.7730	99.211
3.7703	99.201
3.7676	99.190
3.7648	99.169
3.7621	99.137
3.7594	99.123
3.7566	99.106
3.7539	99.092
3.7512	99.074
3.7485	99.095
3.7458	99.098
3.7431	99.100
3.7404	99.097
3.7377	99.101
3.7350	99.083
3.7323	99.084
3.7296	99.102
3.7269	99.089
3.7242	99.102
3.7216	99.104
3.7189	99.104
3.7162	99.078
3.7136	99.035
3.7109	98.973
3.7083	98.926
3.7056	98.891
3.7030	98.892
3.7003	98.872
3.6977	98.850
3.6950	98.887
3.6924	98.898
3.6898	98.878
3.6872	98.889
3.6845	98.895
3.6819	98.880
3.6793	98.877
3.6767	98.866
3.6741	98.825
3.6715	98.814
3.6689	98.826
3.6663	98.809
3.6637	98.809
3.6611	98.802
3.6585	98.767
3.6560	98.775
3.6534	98.814
3.6508	98.807
3.6482	98.849
3.6457	98.856
3.6431	98.855
3.6406	98.801
3.6380	98.713
3.6355	98.702
3.6329	98.684
3.6304	98.684
3.6278	98.680
3.6253	98.696
3.6227	98.695
3.6202	98.656
3.6177	98.632
3.6152	98.637
3.6127	98.663
3.6101	98.689
3.6076	98.671
3.6051	98.654
3.6026	98.637
3.6001	98.643
3.5976	98.606
3.5951	98.616
3.5926	98.637
3.5901	98.611
3.5876	98.631
3.5852	98.612
3.5827	98.598
3.5802	98.569
3.5777	98.575
3.5753	98.595
3.5728	98.607
3.5704	98.536
3.5679	98.528
3.5654	98.530
3.5630	98.490
3.5605	98.461
3.5581	98.422
3.5557	98.391
3.5532	98.384
3.5508	98.408
3.5484	98.373
3.5459	98.389
3.5435	98.418
3.5411	98.409
3.5387	98.422
3.5363	98.411
3.5338	98.382
3.5314	98.335
3.5290	98.356
3.5266	98.343
3.5242	98.321
3.5218	98.295
3.5195	98.270
3.5171	98.264
3.5147	98.225
3.5123	98.222
3.5099	98.239
3.5075	98.227
3.5052	98.145
3.5028	98.080
3.5004	98.044
3.4981	98.021
3.4957	97.997
3.4934	98.006
3.4910	98.039
3.4887	98.029
3.4863	97.969
3.4840	97.947
3.4816	97.969
3.4793	97.990
3.4770	97.999
3.4746	97.999
3.4723	98.030
3.4700	97.982
3.4677	97.944
3.4653	97.955
3.4630	97.936
3.4607	97.903
3.4584	97.897
3.4561	97.905
3.4538	97.916
3.4515	97.898
3.4492	97.893
3.4469	97.866
3.4446	97.858
3.4423	97.841
3.4400	97.893
3.4378	97.873
3.4355	97.816
3.4332	97.799
3.4309	97.791
3.4287	97.780
3.4264	97.761
3.4241	97.721
3.4219	97.653
3.4196	97.664
3.4174	97.616
3.4151	97.616
3.4129	97.576
3.4106	97.566
3.4084	97.517
3.4061	97.531
3.4039	97.556
3.4017	97.578
3.3994	97.595
3.3972	97.567
3.3950	97.536
3.3928	97.521
3.3906	97.569
3.3883	97.594
3.3861	97.582
3.3839	97.594
3.3817	97.578
3.3795	97.623
3.3773	97.646
3.3751	97.629
3.3729	97.646
3.3707	97.713
3.3685	97.679
3.3663	97.619
3.3641	97.562
3.3620	97.537
3.3598	97.507
3.3576	97.494
3.3554	97.502
3.3533	97.504
3.3511	97.477
3.3489	97.450
3.3468	97.474
3.3446	97.502
3.3425	97.475
3.3403	97.494
3.3382	97.523
3.3360	97.532
3.3339	97.518
3.3317	97.522
3.3296	97.473
3.3274	97.471
3.3253	97.446
3.3232	97.391
3.3210	97.355
3.3189	97.363
3.3168	97.373
3.3147	97.383
3.3126	97.410
3.3104	97.407
3.3083	97.414
3.3062	97.409
3.3041	97.414
3.3020	97.421
3.2999	97.391
3.2978	97.408
3.2957	97.444
3.2936	97.439
3.2915	97.377
3.2894	97.363
3.2874	97.306
3.2853	97.289
3.2832	97.261
3.2811	97.258
3.2790	97.248
3.2770	97.242
3.2749	97.250
3.2728	97.180
3.2708	97.171
3.2687	97.185
3.2666	97.172
3.2646	97.119
3.2625	97.091
3.2605	97.079
3.2584	97.075
3.2564	97.037
3.2543	97.061
3.2523	97.109
3.2503	97.068
3.2482	97.105
3.2462	97.103
3.2442	97.074
3.2421	97.104
3.2401	97.076
3.2381	97.050
3.2361	97.063
3.2340	97.065
3.2320	97.057
3.2300	97.061
3.2280	97.067
3.2260	97.029
3.2240	97.020
3.2220	96.989
3.2200	96.925
3.2180	96.914
3.2160	96.949
3.2140	96.927
3.2120	96.891
3.2100	96.908
3.2080	96.893
3.2060	96.828
3.2040	96.775
3.2021	96.768
3.2001	96.746
3.1981	96.736
3.1961	96.793
3.1942	96.758
3.1922	96.684
3.1902	96.649
3.1883	96.617
3.1863	96.605
3.1844	96.600
3.1824	96.623
3.1805	96.564
3.1785	96.547
3.1766	96.511
3.1746	96.469
3.1727	96.443
3.1707	96.432
3.1688	96.420
3.1669	96.407
3.1649	96.377
3.1630	96.368
3.1611	96.347
3.1591	96.303
3.1572	96.248
3.1553	96.213
3.1534	96.154
3.1515	96.133
3.1495	96.111
3.1476	96.078
3.1457	96.074
3.1438	96.052
3.1419	95.957
3.1400	95.937
3.1381	95.910
3.1362	95.879
3.1343	95.889
3.1324	95.920
3.1305	95.924
3.1286	95.892
3.1268	95.887
3.1249	95.840
3.1230	95.748
3.1211	95.675
3.1192	95.631
3.1174	95.619
3.1155	95.625
3.1136	95.569
3.1117	95.545
3.1099	95.473
3.1080	95.430
3.1061	95.357
3.1043	95.295
3.1024	95.207
3.1006	95.196
3.0987	95.106
3.0969	95.111
3.0950	95.050
3.0932	95.033
3.0913	94.963
3.0895	94.941
3.0876	94.887
3.0858	94.847
3.0840	94.809
3.0821	94.771
3.0803	94.783
3.0785	94.734
3.0766	94.717
3.0748	94.672
3.0730	94.625
3.0712	94.600
3.0694	94.599
3.0675	94.584
3.0657	94.511
3.0639	94.403
3.0621	94.342
3.0603	94.291
3.0585	94.252
3.0567	94.195
3.0549	94.184
3.0531	94.131
3.0513	94.092
3.0495	94.050
3.0477	93.996
3.0459	93.900
3.0441	93.879
3.0423	93.916
3.0406	93.862
3.0388	93.851
3.0370	93.823
3.0352	93.752
3.0334	93.725
3.0317	93.706
3.0299	93.645
3.0281	93.650
3.0264	93.634
3.0246	93.552
3.0228	93.479
3.0211	93.406
3.0193	93.317
3.0176	93.264
3.0158	93.217
3.0140	93.151
3.0123	93.080
3.0105	92.955
3.0088	92.903
3.0070	92.844
3.0053	92.725
3.0036	92.633
3.0018	92.552
3.0001	92.473
2.9984	92.396
2.9966	92.320
2.9949	92.209
2.9932	92.101
2.9914	92.016
2.9897	91.908
2.9880	91.793
2.9863	91.679
2.9845	91.584
2.9828	91.478
2.9811	91.372
2.9794	91.234
2.9777	91.077
2.9760	90.922
2.9743	90.782
2.9726	90.655
2.9709	90.515
2.9692	90.444
2.9675	90.313
2.9658	90.171
2.9641	90.087
2.9624	90.002
2.9607	89.841
2.9590	89.680
2.9573	89.599
2.9556	89.445
2.9539	89.306
2.9523	89.199
2.9506	89.137
2.9489	89.072
2.9472	88.951
2.9455	88.847
2.9439	88.758
2.9422	88.738
2.9405	88.655
2.9389	88.603
2.9372	88.577
2.9355	88.535
2.9339	88.531
2.9322	88.438
2.9306	88.318
2.9289	88.301
2.9272	88.295
2.9256	88.204
2.9239	88.091
2.9223	88.025
2.9207	87.996
2.9190	88.007
2.9174	88.035
2.9157	87.963
2.9141	87.924
2.9124	87.922
2.9108	87.926
2.9092	87.931
2.9075	87.975
2.9059	87.958
2.9043	88.008
2.9027	88.037
2.9010	88.063
2.8994	88.040
2.8978	88.114
2.8962	88.195
2.8946	88.240
2.8929	88.235
2.8913	88.274
2.8897	88.275
2.8881	88.321
2.8865	88.333
2.8849	88.453
2.8833	88.502
2.8817	88.555
2.8801	88.537
2.8785	88.505
2.8769	88.470
2.8753	88.476
2.8737	88.508
2.8721	88.517
2.8705	88.548
2.8689	88.597
2.8673	88.641
2.8658	88.688
2.8642	88.723
2.8626	88.799
2.8610	88.859
2.8594	88.947
2.8579	89.111
2.8563	89.150
2.8547	89.203
2.8531	89.240
2.8516	89.278
2.8500	89.301
2.8484	89.357
2.8469	89.430
2.8453	89.501
2.8437	89.607
2.8422	89.702
2.8406	89.782
2.8391	89.877
2.8375	89.912
2.8360	90.019
2.8344	90.093
2.8329	90.158
2.8313	90.244
2.8298	90.318
2.8282	90.427
2.8267	90.468
2.8252	90.559
2.8236	90.635
2.8221	90.683
2.8205	90.793
2.8190	90.914
2.8175	90.972
2.8159	91.109
2.8144	91.172
2.8129	91.152
2.8114	91.196
2.8098	91.266
2.8083	91.338
2.8068	91.368
2.8053	91.406
2.8038	91.535
2.8022	91.591
2.8007	91.570
2.7992	91.578
2.7977	91.691
2.7962	91.767
2.7947	91.884
2.7932	91.977
2.7917	92.075
2.7902	92.133
2.7887	92.238
2.7872	92.352
2.7857	92.412
2.7842	92.443
2.7827	92.500
2.7812	92.582
2.7797	92.601
2.7782	92.713
2.7767	92.813
2.7752	92.849
2.7738	92.884
2.7723	92.931
2.7708	93.005
2.7693	93.005
2.7678	93.019
2.7664	92.997
2.7649	93.050
2.7634	93.084
2.7619	93.084
2.7605	93.045
2.7590	93.098
2.7575	93.269
2.7561	93.349
2.7546	93.387
2.7531	93.416
2.7517	93.482
2.7502	93.438
2.7488	93.390
2.7473	93.291
2.7458	92.947
2.7444	92.669
2.7429	92.863
2.7415	93.175
2.7400	93.332
2.7386	93.271
2.7371	92.941
2.7357	92.215
2.7343	91.044
2.7328	89.978
2.7314	89.583
2.7299	90.853
2.7285	92.774
2.7271	93.062
2.7256	92.160
2.7242	90.305
2.7228	87.669
2.7213	85.895
2.7199	88.209
2.7185	92.259
2.7171	94.251
2.7156	94.938
2.7142	95.199
2.7128	95.183
2.7114	95.032
2.7100	95.013
2.7085	95.056
2.7071	95.130
2.7057	95.207
2.7043	95.236
2.7029	95.200
2.7015	95.189
2.7001	95.200
2.6987	95.261
2.6973	95.376
2.6959	95.441
2.6945	95.476
2.6931	95.426
2.6917	95.497
2.6903	95.549
2.6889	95.535
2.6875	95.556
2.6861	95.601
2.6847	95.623
2.6833	95.584
2.6819	95.618
2.6805	95.572
2.6791	95.520
2.6778	95.586
2.6764	95.609
2.6750	95.564
2.6736	95.551
2.6722	95.613
2.6709	95.641
2.6695	95.550
2.6681	95.579
2.6667	95.555
2.6654	95.536
2.6640	95.438
2.6626	95.387
2.6613	95.426
2.6599	95.488
2.6585	95.533
2.6572	95.430
2.6558	95.383
2.6545	95.386
2.6531	95.411
2.6517	95.468
2.6504	95.587
2.6490	95.629
2.6477	95.568
2.6463	95.563
2.6450	95.571
2.6436	95.570
2.6423	95.543
2.6409	95.543
2.6396	95.502
2.6382	95.594
2.6369	95.531
2.6356	95.477
2.6342	95.380
2.6329	95.383
2.6315	95.403
2.6302	95.402
2.6289	95.372
2.6275	95.454
2.6262	95.458
2.6249	95.466
2.6236	95.414
2.6222	95.356
2.6209	95.402
2.6196	95.371
2.6183	95.332
2.6169	95.304
2.6156	95.300
2.6143	95.372
2.6130	95.360
2.6117	95.325
2.6103	95.337
2.6090	95.258
2.6077	95.215
2.6064	95.183
2.6051	95.118
2.6038	95.140
2.6025	95.140
2.6012	95.130
2.5999	95.173
2.5986	95.175
2.5973	95.177
2.5960	95.140
2.5947	95.118
2.5934	95.187
2.5921	95.212
2.5908	95.258
2.5895	95.312
2.5882	95.410
2.5869	95.386
2.5856	95.293
2.5843	95.219
2.5830	95.227
2.5817	95.173
2.5805	95.051
2.5792	95.122
2.5779	95.169
2.5766	95.165
2.5753	95.086
2.5741	95.048
2.5728	95.078
2.5715	95.023
2.5702	95.040
2.5690	95.059
2.5677	95.079
2.5664	95.054
2.5651	95.048
2.5639	95.074
2.5626	95.078
2.5613	95.148
2.5601	95.180
2.5588	95.219
2.5575	95.164
2.5563	95.177
2.5550	95.122
2.5538	95.152
2.5525	95.005
2.5513	94.949
2.5500	94.989
2.5487	94.945
2.5475	94.914
2.5462	94.982
2.5450	94.898
2.5437	94.894
2.5425	94.988
2.5413	94.894
2.5400	94.911
2.5388	95.001
2.5375	95.024
2.5363	94.976
2.5350	94.954
2.5338	95.079
2.5326	95.016
2.5313	94.973
2.5301	94.925
2.5289	94.793
2.5276	94.723
2.5264	94.699
2.5252	94.707
2.5239	94.722
2.5227	94.759
2.5215	94.746
2.5202	94.705
2.5190	94.724
2.5178	94.828
2.5166	94.830
2.5154	94.873
2.5141	94.890
2.5129	94.900
2.5117	94.832
2.5105	94.900
2.5093	94.967
2.5081	94.910
2.5068	94.828
2.5056	94.842
2.5044	94.861
2.5032	94.802
2.5020	94.736
2.5008	94.724
2.4996	94.785
2.4984	94.758
2.4972	94.728
2.4960	94.660
2.4948	94.670
2.4936	94.681
2.4924	94.732
2.4912	94.707
2.4900	94.871
2.4888	94.845
2.4876	94.752
2.4864	94.738
2.4852	94.785
2.4840	94.742
2.4828	94.666
2.4816	94.633
2.4805	94.675
2.4793	94.666
2.4781	94.701
2.4769	94.799
2.4757	94.886
2.4745	94.787
2.4734	94.830
2.4722	94.771
2.4710	94.793
2.4698	94.800
2.4686	94.679
2.4675	94.720
2.4663	94.718
2.4651	94.703
2.4640	94.582
2.4628	94.603
2.4616	94.738
2.4604	94.726
2.4593	94.656
2.4581	94.683
2.4569	94.691
2.4558	94.711
2.4546	94.728
2.4535	94.720
2.4523	94.588
2.4511	94.590
2.4500	94.562
2.4488	94.508
2.4477	94.566
2.4465	94.695
2.4454	94.625
2.4442	94.568
2.4431	94.590
2.4419	94.558
2.4408	94.525
2.4396	94.556
2.4385	94.660
2.4373	94.595
2.4362	94.664
2.4350	94.812
2.4339	94.750
2.4327	94.722
2.4316	94.781
2.4305	94.644
2.4293	94.425
2.4282	94.343
2.4270	94.338
2.4259	94.330
2.4248	94.349
2.4236	94.345
2.4225	94.291
2.4214	94.455
2.4202	94.470
2.4191	94.480
2.4180	94.408
2.4169	94.433
2.4157	94.404
2.4146	94.394
2.4135	94.533
2.4124	94.545
2.4112	94.572
2.4101	94.593
2.4090	94.642
2.4079	94.517
2.4068	94.447
2.4056	94.465
2.4045	94.470
2.4034	94.550
2.4023	94.517
2.4012	94.472
2.4001	94.340
2.3990	94.345
2.3979	94.234
2.3967	94.314
2.3956	94.402
2.3945	94.377
2.3934	94.383
2.3923	94.427
2.3912	94.437
2.3901	94.267
2.3890	94.148
2.3879	94.134
2.3868	94.175
2.3857	94.119
2.3846	94.078
2.3835	94.111
2.3824	94.113
2.3813	94.166
2.3802	94.095
2.3791	94.050
2.3781	94.205
2.3770	94.355
2.3759	94.347
2.3748	94.343
2.3737	94.312
2.3726	94.400
2.3715	94.230
2.3704	94.242
2.3694	94.285
2.3683	94.230
2.3672	94.254
2.3661	94.359
2.3650	94.330
2.3640	94.314
2.3629	94.300
2.3618	94.304
2.3607	94.390
2.3597	94.496
2.3586	94.445
2.3575	94.449
2.3564	94.316
2.3554	94.416
2.3543	94.484
2.3532	94.492
2.3522	94.527
2.3511	94.410
2.3500	94.453
2.3490	94.361
2.3479	94.261
2.3468	94.181
2.3458	94.090
2.3447	93.963
2.3436	94.002
2.3426	94.070
2.3415	93.918
2.3405	93.914
2.3394	93.949
2.3384	94.039
2.3373	94.103
2.3363	94.054
2.3352	94.160
2.3342	94.056
2.3331	94.011
2.3321	93.980
2.3310	94.039
2.3300	93.961
2.3289	93.902
2.3279	93.978
2.3268	93.984
2.3258	93.890
2.3247	93.925
2.3237	93.957
2.3226	94.066
2.3216	94.215
2.3206	94.320
2.3195	94.367
2.3185	94.265
2.3175	94.158
2.3164	94.111
2.3154	94.050
2.3144	94.072
2.3133	94.111
2.3123	94.183
2.3113	94.234
2.3102	94.095
2.3092	93.972
2.3082	93.820
2.3071	93.666
2.3061	93.720
2.3051	93.742
2.3041	93.799
2.3030	93.830
2.3020	93.855
2.3010	93.922
2.3000	94.105
2.2990	94.308
2.2979	94.306
2.2969	94.330
2.2959	94.250
2.2949	94.191
2.2939	94.072
2.2929	94.062
2.2918	94.267
2.2908	94.211
2.2898	94.117
2.2888	93.978
2.2878	93.965
2.2868	94.101
2.2858	94.093
2.2848	94.080
2.2838	94.197
2.2828	94.218
2.2818	94.093
2.2808	94.050
2.2798	93.929
2.2787	93.976
2.2777	94.062
2.2767	94.113
2.2757	93.949
2.2747	93.613
2.2738	93.511
2.2728	93.603
2.2718	93.799
2.2708	94.134
2.2698	94.242
2.2688	94.291
2.2678	93.994
2.2668	93.994
2.2658	94.064
2.2648	93.996
2.2638	93.937
2.2628	93.961
2.2618	94.082
2.2609	94.312
2.2599	94.343
2.2589	94.275
2.2579	93.953
2.2569	93.785
2.2559	93.851
2.2550	94.140
2.2540	94.312
2.2530	94.371
2.2520	94.383
2.2510	94.398
2.2501	94.150
2.2491	94.080
2.2481	93.988
2.2471	93.957
2.2462	93.992
2.2452	93.877
2.2442	94.066
2.2433	94.142
2.2423	94.228
2.2413	94.283
2.2403	94.164
2.2394	93.947
2.2384	93.931
2.2374	93.861
2.2365	93.902
2.2355	93.910
2.2345	93.929
2.2336	94.090
2.2326	94.117
2.2317	94.049
2.2307	94.133
2.2297	94.025
2.2288	93.859
2.2278	93.931
2.2269	93.830
2.2259	93.767
2.2250	93.820
2.2240	93.845
2.2231	94.000
2.2221	93.953
2.2211	94.002
2.2202	94.017
2.2192	93.861
2.2183	93.884
2.2173	94.015
2.2164	93.970
2.2155	94.015
2.2145	94.015
2.2136	93.947
2.2126	93.914
2.2117	93.924
2.2107	93.877
2.2098	93.884
2.2088	93.976
2.2079	93.869
2.2070	93.744
2.2060	93.830
2.2051	93.750
2.2041	93.759
2.2032	93.759
2.2023	93.970
2.2013	93.970
2.2004	93.883
2.1995	94.049
2.1985	94.168
2.1976	94.015
2.1967	93.986
2.1957	93.890
2.1948	93.791
2.1939	93.679
2.1930	93.711
2.1920	93.742
2.1911	93.820
2.1902	93.791
2.1893	93.812
2.1883	93.814
2.1874	93.851
2.1865	94.062
2.1856	93.992
2.1846	93.728
2.1837	93.773
2.1828	93.687
2.1819	93.640
2.1810	93.681
2.1800	93.851
2.1791	93.906
2.1782	93.759
2.1773	93.689
2.1764	93.726
2.1755	93.549
2.1746	93.609
2.1736	93.939
2.1727	94.049
2.1718	94.283
2.1709	94.015
2.1700	93.914
2.1691	93.611
2.1682	93.713
2.1673	93.672
2.1664	93.869
2.1655	94.080
2.1646	94.179
2.1637	94.093
2.1628	94.000
2.1619	94.166
2.1610	94.246
2.1601	94.127
2.1592	93.947
2.1583	93.994
2.1574	93.970
2.1565	94.008
2.1556	93.806
2.1547	93.759
2.1538	93.804
2.1529	93.703
2.1520	93.666
2.1511	93.736
2.1502	93.720
2.1493	93.789
2.1484	93.689
2.1475	93.658
2.1466	93.752
2.1458	93.845
2.1449	93.916
2.1440	93.859
2.1431	93.668
2.1422	93.660
2.1413	93.621
2.1404	93.941
2.1396	94.011
2.1387	93.715
2.1378	93.832
2.1369	93.910
2.1360	93.980
2.1352	93.894
2.1343	93.992
2.1334	94.207
2.1325	94.304
2.1316	94.398
2.1308	94.340
2.1299	94.215
2.1290	94.090
2.1281	94.164
2.1273	94.175
2.1264	94.375
2.1255	94.394
2.1247	94.304
2.1238	94.000
2.1229	93.633
2.1220	93.328
2.1212	93.515
2.1203	93.605
2.1194	93.769
2.1186	93.910
2.1177	93.918
2.1168	93.910
2.1160	93.840
2.1151	93.711
2.1143	93.883
2.1134	93.863
2.1125	93.742
2.1117	93.761
2.1108	93.812
2.1100	93.730
2.1091	93.863
2.1082	93.828
2.1074	93.894
2.1065	93.789
2.1057	94.015
2.1048	93.867
2.1040	93.769
2.1031	93.629
2.1023	93.879
2.1014	94.008
2.1005	93.871
2.0997	94.066
2.0988	94.113
2.0980	94.187
2.0971	94.285
2.0963	94.179
2.0955	94.172
2.0946	94.222
2.0938	94.437
2.0929	94.461
2.0921	94.332
2.0912	94.390
2.0904	94.203
2.0895	94.199
2.0887	93.972
2.0879	94.011
2.0870	94.015
2.0862	93.949
2.0853	93.965
2.0845	94.000
2.0837	94.004
2.0828	93.726
2.0820	93.547
2.0812	93.570
2.0803	93.773
2.0795	93.961
