Name: Dolomitic Marble 
Type:  Rocks
Class:  Metamorphic 
Subclass:  Marble 
Particle Size:  0-75 Micrometer
File Name:  marble1.doc
Owner:  JHU
Wavelength Range:  All
Origin:  Sample No. 459, The Hunt and Salisbury Collection at the U.S. 
Geological Survey, Denver, Co.
Description: A medium-grained rock containing anhedral and some euhedral 
dolomite.  There are scattered anhedra and subhedra of monticellite, subhedral 
phlogopite and some rounded quartz grains present.  These latter minerals often 
contain opaque inclusions; opaques (some at least of which are pyrite) are also 
disseminated throughout the entire sample. 

Measurement:  Directional (10 Degree) Hemispherical Reflectance
First Column:  X
Second Column:  Y  
X Units:  Wavelength (micrometers)
Y Units:  Reflectance (percent)
First X Value:  14.9831
Last X Value:  0.4
Number of X Values:  2868
Additional Information:  None

14.983	28.519
14.940	29.124
14.897	29.713
14.854	29.995
14.812	30.098
14.770	30.198
14.728	30.416
14.686	30.469
14.645	30.286
14.603	30.080
14.562	29.765
14.521	29.283
14.481	28.627
14.441	27.844
14.400	26.897
14.361	25.504
14.321	23.563
14.281	21.092
14.242	18.024
14.203	14.480
14.164	10.781
14.126	7.3207
14.087	4.4836
14.049	2.4977
14.011	1.5180
13.973	1.7643
13.936	3.2816
13.899	5.6502
13.861	8.1152
13.824	10.141
13.788	11.596
13.751	12.722
13.715	14.005
13.679	15.905
13.643	18.621
13.607	21.898
13.571	25.146
13.536	27.908
13.500	30.078
13.465	31.737
13.430	32.966
13.396	33.838
13.361	34.456
13.327	34.879
13.293	35.132
13.259	35.238
13.225	35.196
13.191	34.999
13.158	34.654
13.124	34.189
13.091	33.638
13.058	33.036
13.026	32.463
12.993	31.983
12.960	31.628
12.928	31.415
12.896	31.322
12.864	31.306
12.832	31.328
12.800	31.383
12.769	31.505
12.737	31.724
12.706	32.032
12.675	32.396
12.644	32.766
12.614	33.100
12.583	33.373
12.552	33.603
12.522	33.816
12.492	34.050
12.462	34.297
12.432	34.523
12.402	34.701
12.373	34.812
12.343	34.868
12.314	34.939
12.285	35.073
12.256	35.289
12.227	35.573
12.198	35.897
12.169	36.195
12.141	36.425
12.113	36.566
12.084	36.624
12.056	36.579
12.028	36.420
12.000	36.142
11.973	35.780
11.945	35.351
11.918	34.624
11.890	32.335
11.863	27.974
11.836	23.271
11.809	19.614
11.782	17.629
11.755	17.652
11.729	19.373
11.702	21.637
11.676	22.438
11.650	21.180
11.624	19.119
11.598	16.663
11.572	13.889
11.546	11.097
11.520	8.5045
11.495	6.3516
11.469	4.8455
11.444	4.0687
11.419	3.9039
11.394	4.0458
11.369	4.2466
11.344	4.7415
11.319	5.9794
11.294	8.1019
11.270	11.074
11.245	14.685
11.221	18.495
11.197	21.931
11.173	24.613
11.149	26.613
11.125	28.124
11.101	29.185
11.077	29.934
11.054	30.531
11.030	31.069
11.007	31.564
10.983	32.011
10.960	32.386
10.937	32.640
10.914	32.732
10.891	32.671
10.868	32.453
10.846	32.090
10.823	31.616
10.800	31.080
10.778	30.519
10.755	29.971
10.733	29.491
10.711	29.142
10.689	28.933
10.667	28.856
10.645	28.869
10.623	28.916
10.602	28.949
10.580	28.973
10.558	29.026
10.537	29.153
10.516	29.387
10.494	29.728
10.473	30.132
10.452	30.549
10.431	30.903
10.410	31.157
10.389	31.299
10.368	31.337
10.348	31.291
10.327	31.154
10.306	30.894
10.286	30.495
10.266	30.001
10.245	29.511
10.225	29.108
10.205	28.856
10.185	28.770
10.165	28.767
10.145	28.703
10.125	28.499
10.106	28.174
10.086	27.796
10.066	27.422
10.047	27.099
10.027	26.857
10.008	26.682
9.9887	26.532
9.9695	26.375
9.9504	26.186
9.9313	25.961
9.9123	25.705
9.8934	25.461
9.8746	25.290
9.8558	25.230
9.8371	25.275
9.8185	25.378
9.7999	25.497
9.7814	25.618
9.7630	25.758
9.7447	25.987
9.7264	26.352
9.7082	26.850
9.6900	27.441
9.6719	28.053
9.6539	28.603
9.6360	29.041
9.6181	29.362
9.6003	29.619
9.5825	29.885
9.5649	30.192
9.5472	30.549
9.5297	30.931
9.5122	31.277
9.4948	31.549
9.4774	31.720
9.4601	31.786
9.4429	31.736
9.4257	31.535
9.4086	31.215
9.3916	30.858
9.3746	30.546
9.3577	30.352
9.3408	30.332
9.3240	30.488
9.3073	30.694
9.2906	30.499
9.2740	29.572
9.2574	28.090
9.2409	26.545
9.2245	25.553
9.2081	25.529
9.1918	26.522
9.1755	28.183
9.1593	29.772
9.1431	30.725
9.1270	31.034
9.1110	30.986
9.0950	30.949
9.0791	31.091
9.0632	31.366
9.0474	31.664
9.0316	31.880
9.0159	31.940
9.0003	31.885
8.9847	31.762
8.9691	31.606
8.9536	31.439
8.9382	31.258
8.9228	31.066
8.9075	30.870
8.8922	30.671
8.8770	30.494
8.8618	30.329
8.8467	30.149
8.8316	29.939
8.8166	29.661
8.8016	29.287
8.7867	28.820
8.7718	28.252
8.7570	27.584
8.7422	26.858
8.7275	26.115
8.7129	25.376
8.6982	24.630
8.6837	23.863
8.6692	23.052
8.6547	22.166
8.6403	21.215
8.6259	20.271
8.6116	19.432
8.5973	18.781
8.5830	18.367
8.5688	18.168
8.5547	18.086
8.5406	18.028
8.5266	17.927
8.5126	17.759
8.4986	17.558
8.4847	17.380
8.4708	17.285
8.4570	17.283
8.4432	17.349
8.4295	17.463
8.4158	17.613
8.4022	17.809
8.3886	18.066
8.3750	18.381
8.3615	18.742
8.3481	19.115
8.3347	19.456
8.3213	19.740
8.3079	19.972
8.2946	20.160
8.2814	20.322
8.2682	20.462
8.2550	20.577
8.2419	20.669
8.2288	20.722
8.2158	20.712
8.2028	20.632
8.1898	20.481
8.1769	20.280
8.1640	20.060
8.1512	19.838
8.1384	19.645
8.1256	19.479
8.1129	19.304
8.1002	19.104
8.0876	18.890
8.0750	18.711
8.0624	18.607
8.0499	18.579
8.0374	18.630
8.0250	18.735
8.0126	18.843
8.0002	18.902
7.9879	18.897
7.9756	18.840
7.9634	18.720
7.9512	18.521
7.9390	18.267
7.9268	17.991
7.9147	17.733
7.9027	17.515
7.8906	17.368
7.8786	17.300
7.8667	17.267
7.8548	17.219
7.8429	17.117
7.8310	16.945
7.8192	16.715
7.8075	16.456
7.7957	16.216
7.7840	16.024
7.7723	15.872
7.7607	15.742
7.7491	15.603
7.7375	15.423
7.7260	15.192
7.7145	14.919
7.7031	14.608
7.6916	14.262
7.6802	13.894
7.6689	13.519
7.6575	13.139
7.6462	12.759
7.6350	12.393
7.6238	12.061
7.6126	11.766
7.6014	11.506
7.5903	11.286
7.5792	11.109
7.5681	10.969
7.5571	10.848
7.5461	10.729
7.5351	10.618
7.5242	10.500
7.5133	10.359
7.5024	10.195
7.4916	10.017
7.4807	9.8331
7.4700	9.6363
7.4592	9.4333
7.4485	9.2363
7.4378	9.0393
7.4272	8.8418
7.4165	8.6466
7.4059	8.4501
7.3954	8.2478
7.3848	8.0300
7.3743	7.7920
7.3639	7.5326
7.3534	7.2515
7.3430	6.9621
7.3326	6.6699
7.3223	6.3817
7.3119	6.1087
7.3016	5.8508
7.2914	5.6158
7.2811	5.4072
7.2709	5.2253
7.2607	5.0671
7.2506	4.9184
7.2404	4.7811
7.2303	4.6575
7.2203	4.5476
7.2102	4.4592
7.2002	4.3901
7.1902	4.3486
7.1803	4.3307
7.1703	4.3302
7.1604	4.3555
7.1506	4.4005
7.1407	4.4765
7.1309	4.5940
7.1211	4.7411
7.1113	4.9028
7.1016	5.0527
7.0919	5.1768
7.0822	5.2673
7.0725	5.3070
7.0629	5.3208
7.0533	5.3378
7.0437	5.3589
7.0341	5.3620
7.0246	5.3492
7.0151	5.3366
7.0056	5.3231
6.9962	5.2992
6.9867	5.2718
6.9773	5.2509
6.9679	5.2391
6.9586	5.2232
6.9493	5.2109
6.9400	5.2062
6.9307	5.2185
6.9214	5.2452
6.9122	5.2779
6.9030	5.3227
6.8938	5.3790
6.8847	5.4323
6.8755	5.4839
6.8664	5.5301
6.8573	5.5803
6.8483	5.6410
6.8393	5.7011
6.8302	5.7570
6.8213	5.8091
6.8123	5.8458
6.8034	5.8849
6.7944	5.9275
6.7855	5.9765
6.7767	6.0376
6.7678	6.1077
6.7590	6.1847
6.7502	6.2695
6.7414	6.3505
6.7327	6.4331
6.7239	6.5193
6.7152	6.6112
6.7065	6.7137
6.6979	6.8357
6.6892	6.9721
6.6806	7.1139
6.6720	7.2494
6.6634	7.3692
6.6549	7.4850
6.6464	7.6122
6.6378	7.7560
6.6294	7.9179
6.6209	8.0960
6.6124	8.2954
6.6040	8.5055
6.5956	8.7096
6.5872	8.9152
6.5789	9.1240
6.5705	9.3310
6.5622	9.5333
6.5539	9.7336
6.5456	9.9380
6.5374	10.146
6.5292	10.348
6.5209	10.545
6.5128	10.744
6.5046	10.952
6.4964	11.181
6.4883	11.425
6.4802	11.678
6.4721	11.938
6.4640	12.187
6.4560	12.367
6.4480	12.423
6.4399	12.321
6.4320	12.066
6.4240	11.686
6.4160	11.233
6.4081	10.771
6.4002	10.335
6.3923	9.9278
6.3844	9.5342
6.3766	9.1328
6.3687	8.6966
6.3609	8.2038
6.3531	7.6489
6.3454	7.0531
6.3376	6.4523
6.3299	5.8896
6.3221	5.4018
6.3144	4.9959
6.3068	4.6662
6.2991	4.4128
6.2914	4.2279
6.2838	4.1014
6.2762	4.0188
6.2686	3.9607
6.2611	3.9032
6.2535	3.8269
6.2460	3.7287
6.2385	3.6313
6.2310	3.5421
6.2235	3.4613
6.2160	3.3926
6.2086	3.3296
6.2011	3.2766
6.1937	3.2342
6.1863	3.1866
6.1790	3.1504
6.1716	3.1317
6.1643	3.1321
6.1570	3.1440
6.1496	3.1605
6.1424	3.1942
6.1351	3.2330
6.1278	3.2659
6.1206	3.3116
6.1134	3.3654
6.1062	3.4163
6.0990	3.4682
6.0918	3.5338
6.0847	3.6242
6.0776	3.7201
6.0704	3.8168
6.0633	3.9394
6.0563	4.0801
6.0492	4.2262
6.0421	4.3894
6.0351	4.5665
6.0281	4.7619
6.0211	4.9549
6.0141	5.1325
6.0071	5.3139
6.0002	5.4991
5.9932	5.6819
5.9863	5.8475
5.9794	5.9966
5.9725	6.1518
5.9657	6.3078
5.9588	6.4620
5.9520	6.6323
5.9451	6.8231
5.9383	7.0232
5.9315	7.2193
5.9247	7.4130
5.9180	7.6020
5.9112	7.7794
5.9045	7.9447
5.8978	8.0939
5.8911	8.2296
5.8844	8.3589
5.8777	8.4792
5.8711	8.5850
5.8644	8.6767
5.8578	8.7529
5.8512	8.8067
5.8446	8.8332
5.8380	8.8477
5.8314	8.8583
5.8249	8.8631
5.8184	8.8728
5.8118	8.8894
5.8053	8.9066
5.7988	8.9182
5.7923	8.9194
5.7859	8.9038
5.7794	8.8789
5.7730	8.8557
5.7666	8.8510
5.7602	8.8725
5.7538	8.9289
5.7474	9.0385
5.7410	9.2020
5.7347	9.3983
5.7283	9.6195
5.7220	9.8563
5.7157	10.096
5.7094	10.328
5.7031	10.544
5.6969	10.765
5.6906	11.012
5.6844	11.288
5.6782	11.596
5.6719	11.950
5.6657	12.347
5.6596	12.747
5.6534	13.090
5.6472	13.333
5.6411	13.434
5.6349	13.334
5.6288	12.966
5.6227	12.288
5.6166	11.310
5.6106	10.045
5.6045	8.5315
5.5984	6.8913
5.5924	5.3132
5.5864	3.9799
5.5804	2.9808
5.5744	2.3172
5.5684	1.9769
5.5624	1.9435
5.5564	2.2190
5.5505	2.8669
5.5445	3.9619
5.5386	5.4792
5.5327	7.2610
5.5268	9.0859
5.5209	10.752
5.5151	12.160
5.5092	13.310
5.5033	14.279
5.4975	15.163
5.4917	16.042
5.4859	16.977
5.4801	18.009
5.4743	19.159
5.4685	20.416
5.4628	21.740
5.4570	23.085
5.4513	24.391
5.4455	25.622
5.4398	26.759
5.4341	27.813
5.4284	28.803
5.4228	29.731
5.4171	30.602
5.4114	31.422
5.4058	32.196
5.4002	32.919
5.3945	33.598
5.3889	34.252
5.3833	34.880
5.3778	35.476
5.3722	36.046
5.3666	36.589
5.3611	37.110
5.3555	37.612
5.3500	38.104
5.3445	38.586
5.3390	39.053
5.3335	39.498
5.3280	39.922
5.3225	40.326
5.3171	40.717
5.3116	41.097
5.3062	41.463
5.3008	41.820
5.2954	42.165
5.2900	42.494
5.2846	42.810
5.2792	43.123
5.2738	43.436
5.2684	43.734
5.2631	44.022
5.2578	44.315
5.2524	44.603
5.2471	44.885
5.2418	45.159
5.2365	45.427
5.2312	45.682
5.2260	45.913
5.2207	46.130
5.2154	46.340
5.2102	46.545
5.2050	46.749
5.1998	46.952
5.1945	47.153
5.1893	47.339
5.1842	47.502
5.1790	47.655
5.1738	47.802
5.1686	47.947
5.1635	48.092
5.1584	48.232
5.1532	48.367
5.1481	48.494
5.1430	48.615
5.1379	48.725
5.1328	48.814
5.1277	48.836
5.1227	48.655
5.1176	48.068
5.1126	47.037
5.1075	45.915
5.1025	45.173
5.0975	45.078
5.0925	45.678
5.0875	46.795
5.0825	48.047
5.0775	48.993
5.0726	49.441
5.0676	49.590
5.0627	49.687
5.0577	49.822
5.0528	50.002
5.0479	50.206
5.0430	50.390
5.0380	50.531
5.0332	50.632
5.0283	50.706
5.0234	50.762
5.0185	50.806
5.0137	50.843
5.0088	50.881
5.0040	50.911
4.9992	50.935
4.9944	50.958
4.9896	50.979
4.9848	50.993
4.9800	51.002
4.9752	51.014
4.9704	51.023
4.9657	51.030
4.9609	51.040
4.9562	51.056
4.9514	51.076
4.9467	51.092
4.9420	51.107
4.9373	51.136
4.9326	51.173
4.9279	51.211
4.9232	51.253
4.9186	51.296
4.9139	51.341
4.9092	51.382
4.9046	51.415
4.9000	51.454
4.8953	51.507
4.8907	51.561
4.8861	51.610
4.8815	51.653
4.8769	51.697
4.8723	51.737
4.8678	51.765
4.8632	51.788
4.8586	51.819
4.8541	51.851
4.8495	51.888
4.8450	51.928
4.8405	51.967
4.8360	51.998
4.8315	52.020
4.8270	52.037
4.8225	52.051
4.8180	52.064
4.8135	52.078
4.8090	52.086
4.8046	52.090
4.8001	52.094
4.7957	52.096
4.7913	52.094
4.7868	52.077
4.7824	52.037
4.7780	51.965
4.7736	51.857
4.7692	51.708
4.7648	51.528
4.7605	51.322
4.7561	51.088
4.7517	50.817
4.7474	50.492
4.7431	50.106
4.7387	49.655
4.7344	49.111
4.7301	48.455
4.7258	47.674
4.7215	46.754
4.7172	45.703
4.7129	44.543
4.7086	43.322
4.7043	42.100
4.7000	40.931
4.6958	39.873
4.6915	38.960
4.6873	38.206
4.6831	37.619
4.6788	37.188
4.6746	36.894
4.6704	36.720
4.6662	36.678
4.6620	36.804
4.6578	37.112
4.6536	37.612
4.6495	38.299
4.6453	39.148
4.6411	40.090
4.6370	41.036
4.6328	41.916
4.6287	42.704
4.6246	43.394
4.6205	43.991
4.6163	44.506
4.6122	44.954
4.6081	45.353
4.6040	45.702
4.6000	45.999
4.5959	46.268
4.5918	46.516
4.5877	46.741
4.5837	46.931
4.5796	47.090
4.5756	47.228
4.5716	47.340
4.5675	47.442
4.5635	47.536
4.5595	47.612
4.5555	47.678
4.5515	47.741
4.5475	47.804
4.5435	47.855
4.5395	47.895
4.5356	47.940
4.5316	47.986
4.5276	48.028
4.5237	48.073
4.5197	48.141
4.5158	48.225
4.5119	48.319
4.5080	48.427
4.5040	48.557
4.5001	48.713
4.4962	48.894
4.4923	49.099
4.4884	49.333
4.4846	49.578
4.4807	49.828
4.4768	50.072
4.4730	50.297
4.4691	50.502
4.4652	50.690
4.4614	50.858
4.4576	51.004
4.4537	51.143
4.4499	51.293
4.4461	51.462
4.4423	51.650
4.4385	51.849
4.4347	52.051
4.4309	52.249
4.4271	52.430
4.4233	52.598
4.4196	52.760
4.4158	52.913
4.4120	53.062
4.4083	53.197
4.4045	53.310
4.4008	53.406
4.3971	53.485
4.3934	53.556
4.3896	53.619
4.3859	53.673
4.3822	53.727
4.3785	53.767
4.3748	53.782
4.3711	53.770
4.3674	53.720
4.3638	53.627
4.3601	53.497
4.3564	53.337
4.3528	53.169
4.3491	53.001
4.3455	52.846
4.3418	52.722
4.3382	52.624
4.3346	52.554
4.3310	52.510
4.3273	52.482
4.3237	52.465
4.3201	52.446
4.3165	52.433
4.3129	52.433
4.3094	52.451
4.3058	52.494
4.3022	52.560
4.2986	52.633
4.2951	52.694
4.2915	52.731
4.2880	52.756
4.2844	52.770
4.2809	52.778
4.2774	52.784
4.2738	52.790
4.2703	52.786
4.2668	52.772
4.2633	52.748
4.2598	52.720
4.2563	52.686
4.2528	52.644
4.2493	52.593
4.2458	52.539
4.2424	52.483
4.2389	52.427
4.2354	52.367
4.2320	52.303
4.2285	52.235
4.2251	52.170
4.2216	52.112
4.2182	52.065
4.2148	52.026
4.2113	51.991
4.2079	51.951
4.2045	51.889
4.2011	51.807
4.1977	51.711
4.1943	51.601
4.1909	51.473
4.1875	51.336
4.1841	51.197
4.1808	51.049
4.1774	50.890
4.1740	50.734
4.1707	50.581
4.1673	50.417
4.1640	50.234
4.1606	50.032
4.1573	49.816
4.1540	49.579
4.1506	49.331
4.1473	49.082
4.1440	48.820
4.1407	48.538
4.1374	48.233
4.1341	47.906
4.1308	47.571
4.1275	47.225
4.1242	46.859
4.1209	46.481
4.1177	46.090
4.1144	45.686
4.1111	45.270
4.1079	44.854
4.1046	44.441
4.1014	44.028
4.0981	43.591
4.0949	43.125
4.0917	42.626
4.0884	42.080
4.0852	41.491
4.0820	40.862
4.0788	40.186
4.0756	39.469
4.0724	38.716
4.0692	37.935
4.0660	37.129
4.0628	36.289
4.0596	35.399
4.0565	34.425
4.0533	33.311
4.0501	32.020
4.0470	30.536
4.0438	28.881
4.0406	27.108
4.0375	25.292
4.0344	23.511
4.0312	21.811
4.0281	20.212
4.0250	18.726
4.0218	17.352
4.0187	16.062
4.0156	14.833
4.0125	13.661
4.0094	12.530
4.0063	11.430
4.0032	10.363
4.0001	9.3554
3.9970	8.4489
3.9940	7.6489
3.9909	6.9669
3.9878	6.4220
3.9847	6.0234
3.9817	5.7537
3.9786	5.5836
3.9756	5.5031
3.9725	5.4963
3.9695	5.5441
3.9665	5.6518
3.9634	5.8368
3.9604	6.1212
3.9574	6.5094
3.9544	7.0045
3.9513	7.6148
3.9483	8.3388
3.9453	9.1733
3.9423	10.067
3.9393	10.922
3.9363	11.653
3.9333	12.220
3.9304	12.628
3.9274	12.925
3.9244	13.177
3.9214	13.445
3.9185	13.737
3.9155	14.026
3.9126	14.290
3.9096	14.532
3.9067	14.760
3.9037	14.972
3.9008	15.168
3.8979	15.344
3.8949	15.494
3.8920	15.623
3.8891	15.740
3.8862	15.847
3.8833	15.944
3.8804	16.033
3.8775	16.121
3.8746	16.210
3.8717	16.302
3.8688	16.405
3.8659	16.525
3.8630	16.677
3.8601	16.865
3.8573	17.078
3.8544	17.307
3.8515	17.561
3.8487	17.839
3.8458	18.135
3.8430	18.472
3.8401	18.883
3.8373	19.388
3.8344	19.989
3.8316	20.681
3.8288	21.443
3.8259	22.244
3.8231	23.058
3.8203	23.873
3.8175	24.688
3.8147	25.521
3.8119	26.416
3.8091	27.415
3.8063	28.548
3.8035	29.845
3.8007	31.311
3.7979	32.924
3.7951	34.626
3.7924	36.324
3.7896	37.931
3.7868	39.386
3.7841	40.659
3.7813	41.752
3.7785	42.684
3.7758	43.508
3.7730	44.266
3.7703	44.964
3.7676	45.619
3.7648	46.235
3.7621	46.809
3.7594	47.350
3.7566	47.851
3.7539	48.321
3.7512	48.777
3.7485	49.221
3.7458	49.646
3.7431	50.045
3.7404	50.417
3.7377	50.765
3.7350	51.072
3.7323	51.343
3.7296	51.590
3.7269	51.805
3.7242	51.978
3.7216	52.127
3.7189	52.267
3.7162	52.398
3.7136	52.507
3.7109	52.607
3.7083	52.704
3.7056	52.797
3.7030	52.891
3.7003	52.978
3.6977	53.058
3.6950	53.130
3.6924	53.191
3.6898	53.244
3.6872	53.291
3.6845	53.331
3.6819	53.358
3.6793	53.365
3.6767	53.364
3.6741	53.349
3.6715	53.335
3.6689	53.328
3.6663	53.323
3.6637	53.312
3.6611	53.283
3.6585	53.241
3.6560	53.192
3.6534	53.128
3.6508	53.054
3.6482	52.983
3.6457	52.921
3.6431	52.863
3.6406	52.795
3.6380	52.709
3.6355	52.618
3.6329	52.530
3.6304	52.432
3.6278	52.323
3.6253	52.212
3.6227	52.097
3.6202	51.973
3.6177	51.836
3.6152	51.686
3.6127	51.529
3.6101	51.353
3.6076	51.139
3.6051	50.900
3.6026	50.629
3.6001	50.337
3.5976	50.019
3.5951	49.651
3.5926	49.229
3.5901	48.745
3.5876	48.194
3.5852	47.579
3.5827	46.885
3.5802	46.139
3.5777	45.387
3.5753	44.678
3.5728	44.091
3.5704	43.663
3.5679	43.384
3.5654	43.188
3.5630	42.982
3.5605	42.690
3.5581	42.272
3.5557	41.728
3.5532	41.095
3.5508	40.400
3.5484	39.645
3.5459	38.820
3.5435	37.908
3.5411	36.896
3.5387	35.765
3.5363	34.507
3.5338	33.127
3.5314	31.616
3.5290	29.979
3.5266	28.241
3.5242	26.442
3.5218	24.678
3.5195	23.040
3.5171	21.604
3.5147	20.398
3.5123	19.392
3.5099	18.554
3.5075	17.826
3.5052	17.157
3.5028	16.532
3.5004	15.947
3.4981	15.387
3.4957	14.828
3.4934	14.266
3.4910	13.728
3.4887	13.224
3.4863	12.751
3.4840	12.331
3.4816	12.000
3.4793	11.784
3.4770	11.714
3.4746	11.849
3.4723	12.248
3.4700	12.915
3.4677	13.773
3.4653	14.734
3.4630	15.693
3.4607	16.535
3.4584	17.200
3.4561	17.689
3.4538	18.042
3.4515	18.324
3.4492	18.564
3.4469	18.785
3.4446	18.992
3.4423	19.178
3.4400	19.348
3.4378	19.505
3.4355	19.652
3.4332	19.796
3.4309	19.923
3.4287	20.025
3.4264	20.104
3.4241	20.155
3.4219	20.187
3.4196	20.195
3.4174	20.187
3.4151	20.180
3.4129	20.159
3.4106	20.120
3.4084	20.063
3.4061	19.999
3.4039	19.938
3.4017	19.857
3.3994	19.767
3.3972	19.696
3.3950	19.628
3.3928	19.544
3.3906	19.448
3.3883	19.358
3.3861	19.270
3.3839	19.176
3.3817	19.086
3.3795	19.019
3.3773	18.953
3.3751	18.879
3.3729	18.815
3.3707	18.733
3.3685	18.600
3.3663	18.406
3.3641	18.120
3.3620	17.731
3.3598	17.251
3.3576	16.733
3.3554	16.249
3.3533	15.848
3.3511	15.643
3.3489	15.771
3.3468	16.338
3.3446	17.422
3.3425	19.043
3.3403	21.118
3.3382	23.446
3.3360	25.793
3.3339	27.985
3.3317	29.901
3.3296	31.481
3.3274	32.738
3.3253	33.748
3.3232	34.561
3.3210	35.195
3.3189	35.690
3.3168	36.103
3.3147	36.463
3.3126	36.801
3.3104	37.169
3.3083	37.616
3.3062	38.167
3.3041	38.836
3.3020	39.642
3.2999	40.576
3.2978	41.592
3.2957	42.613
3.2936	43.570
3.2915	44.406
3.2894	45.090
3.2874	45.636
3.2853	46.092
3.2832	46.494
3.2811	46.855
3.2790	47.187
3.2770	47.496
3.2749	47.790
3.2728	48.053
3.2708	48.295
3.2687	48.521
3.2666	48.724
3.2646	48.906
3.2625	49.080
3.2605	49.260
3.2584	49.448
3.2564	49.623
3.2543	49.784
3.2523	49.938
3.2503	50.087
3.2482	50.228
3.2462	50.355
3.2442	50.472
3.2421	50.586
3.2401	50.694
3.2381	50.798
3.2361	50.912
3.2340	51.023
3.2320	51.125
3.2300	51.222
3.2280	51.316
3.2260	51.410
3.2240	51.507
3.2220	51.599
3.2200	51.687
3.2180	51.778
3.2160	51.873
3.2140	51.964
3.2120	52.058
3.2100	52.137
3.2080	52.208
3.2060	52.258
3.2040	52.295
3.2021	52.341
3.2001	52.386
3.1981	52.410
3.1961	52.440
3.1942	52.485
3.1922	52.542
3.1902	52.579
3.1883	52.583
3.1863	52.584
3.1844	52.568
3.1824	52.513
3.1805	52.461
3.1785	52.432
3.1766	52.392
3.1746	52.317
3.1727	52.218
3.1707	52.125
3.1688	52.014
3.1669	51.856
3.1649	51.667
3.1630	51.455
3.1611	51.211
3.1591	50.954
3.1572	50.723
3.1553	50.565
3.1534	50.465
3.1515	50.387
3.1495	50.339
3.1476	50.327
3.1457	50.333
3.1438	50.365
3.1419	50.435
3.1400	50.535
3.1381	50.623
3.1362	50.691
3.1343	50.767
3.1324	50.831
3.1305	50.869
3.1286	50.908
3.1268	50.923
3.1249	50.874
3.1230	50.768
3.1211	50.647
3.1192	50.505
3.1174	50.335
3.1155	50.155
3.1136	50.003
3.1117	49.877
3.1099	49.777
3.1080	49.745
3.1061	49.785
3.1043	49.871
3.1024	49.984
3.1006	50.108
3.0987	50.246
3.0969	50.407
3.0950	50.567
3.0932	50.732
3.0913	50.908
3.0895	51.092
3.0876	51.267
3.0858	51.426
3.0840	51.570
3.0821	51.716
3.0803	51.844
3.0785	51.950
3.0766	52.061
3.0748	52.170
3.0730	52.273
3.0712	52.352
3.0694	52.403
3.0675	52.463
3.0657	52.523
3.0639	52.579
3.0621	52.659
3.0603	52.759
3.0585	52.854
3.0567	52.912
3.0549	52.966
3.0531	53.045
3.0513	53.124
3.0495	53.191
3.0477	53.255
3.0459	53.309
3.0441	53.358
3.0423	53.390
3.0406	53.415
3.0388	53.456
3.0370	53.509
3.0352	53.555
3.0334	53.590
3.0317	53.623
3.0299	53.675
3.0281	53.734
3.0264	53.804
3.0246	53.867
3.0228	53.909
3.0211	53.933
3.0193	53.951
3.0176	53.970
3.0158	54.004
3.0140	54.049
3.0123	54.118
3.0105	54.171
3.0088	54.176
3.0070	54.178
3.0053	54.193
3.0036	54.221
3.0018	54.263
3.0001	54.289
2.9984	54.303
2.9966	54.316
2.9949	54.313
2.9932	54.321
2.9914	54.339
2.9897	54.364
2.9880	54.402
2.9863	54.431
2.9845	54.429
2.9828	54.422
2.9811	54.429
2.9794	54.432
2.9777	54.432
2.9760	54.439
2.9743	54.461
2.9726	54.481
2.9709	54.464
2.9692	54.431
2.9675	54.410
2.9658	54.399
2.9641	54.396
2.9624	54.416
2.9607	54.440
2.9590	54.460
2.9573	54.487
2.9556	54.506
2.9539	54.506
2.9523	54.496
2.9506	54.481
2.9489	54.466
2.9472	54.423
2.9455	54.401
2.9439	54.430
2.9422	54.467
2.9405	54.486
2.9389	54.491
2.9372	54.495
2.9355	54.495
2.9339	54.498
2.9322	54.520
2.9306	54.552
2.9289	54.586
2.9272	54.614
2.9256	54.606
2.9239	54.590
2.9223	54.599
2.9207	54.645
2.9190	54.681
2.9174	54.705
2.9157	54.739
2.9141	54.785
2.9124	54.805
2.9108	54.807
2.9092	54.823
2.9075	54.860
2.9059	54.884
2.9043	54.898
2.9027	54.913
2.9010	54.949
2.8994	54.977
2.8978	54.985
2.8962	54.994
2.8946	55.040
2.8929	55.102
2.8913	55.156
2.8897	55.202
2.8881	55.239
2.8865	55.261
2.8849	55.274
2.8833	55.292
2.8817	55.329
2.8801	55.372
2.8785	55.414
2.8769	55.460
2.8753	55.489
2.8737	55.501
2.8721	55.515
2.8705	55.542
2.8689	55.577
2.8673	55.621
2.8658	55.680
2.8642	55.754
2.8626	55.820
2.8610	55.854
2.8594	55.859
2.8579	55.865
2.8563	55.872
2.8547	55.868
2.8531	55.861
2.8516	55.884
2.8500	55.914
2.8484	55.920
2.8469	55.928
2.8453	55.963
2.8437	56.001
2.8422	56.020
2.8406	56.022
2.8391	56.043
2.8375	56.059
2.8360	56.039
2.8344	56.008
2.8329	55.982
2.8313	55.937
2.8298	55.875
2.8282	55.807
2.8267	55.761
2.8252	55.728
2.8236	55.679
2.8221	55.627
2.8205	55.578
2.8190	55.514
2.8175	55.445
2.8159	55.376
2.8144	55.298
2.8129	55.201
2.8114	55.083
2.8098	54.948
2.8083	54.772
2.8068	54.569
2.8053	54.376
2.8038	54.189
2.8022	53.998
2.8007	53.807
2.7992	53.599
2.7977	53.354
2.7962	53.060
2.7947	52.749
2.7932	52.440
2.7917	52.121
2.7902	51.836
2.7887	51.644
2.7872	51.561
2.7857	51.604
2.7842	51.777
2.7827	52.067
2.7812	52.415
2.7797	52.770
2.7782	53.130
2.7767	53.492
2.7752	53.840
2.7738	54.185
2.7723	54.517
2.7708	54.860
2.7693	55.229
2.7678	55.591
2.7664	55.924
2.7649	56.235
2.7634	56.521
2.7619	56.784
2.7605	56.982
2.7590	57.145
2.7575	57.315
2.7561	57.459
2.7546	57.568
2.7531	57.691
2.7517	57.849
2.7502	58.022
2.7488	58.173
2.7473	58.301
2.7458	58.405
2.7444	58.450
2.7429	58.451
2.7415	58.479
2.7400	58.535
2.7386	58.598
2.7371	58.691
2.7357	58.796
2.7343	58.884
2.7328	58.935
2.7314	58.968
2.7299	58.994
2.7285	58.956
2.7271	58.905
2.7256	58.896
2.7242	58.908
2.7228	59.011
2.7213	59.236
2.7199	59.539
2.7185	59.849
2.7171	60.100
2.7156	60.285
2.7142	60.383
2.7128	60.411
2.7114	60.455
2.7100	60.562
2.7085	60.708
2.7071	60.868
2.7057	61.029
2.7043	61.150
2.7029	61.235
2.7015	61.322
2.7001	61.403
2.6987	61.470
2.6973	61.527
2.6959	61.598
2.6945	61.676
2.6931	61.765
2.6917	61.871
2.6903	61.989
2.6889	62.092
2.6875	62.167
2.6861	62.240
2.6847	62.325
2.6833	62.375
2.6819	62.408
2.6805	62.420
2.6791	62.419
2.6778	62.432
2.6764	62.474
2.6750	62.505
2.6736	62.517
2.6722	62.532
2.6709	62.536
2.6695	62.510
2.6681	62.490
2.6667	62.534
2.6654	62.597
2.6640	62.638
2.6626	62.686
2.6613	62.783
2.6599	62.867
2.6585	62.910
2.6572	62.921
2.6558	62.933
2.6545	62.927
2.6531	62.929
2.6517	62.940
2.6504	62.963
2.6490	62.990
2.6477	63.012
2.6463	63.005
2.6450	63.000
2.6436	63.013
2.6423	63.020
2.6409	63.021
2.6396	63.027
2.6382	63.026
2.6369	63.023
2.6356	62.992
2.6342	62.940
2.6329	62.911
2.6315	62.886
2.6302	62.865
2.6289	62.872
2.6275	62.882
2.6262	62.918
2.6249	62.926
2.6236	62.873
2.6222	62.855
2.6209	62.831
2.6196	62.793
2.6183	62.785
2.6169	62.801
2.6156	62.861
2.6143	62.925
2.6130	62.953
2.6117	62.992
2.6103	62.977
2.6090	62.908
2.6077	62.842
2.6064	62.794
2.6051	62.778
2.6038	62.797
2.6025	62.829
2.6012	62.876
2.5999	62.865
2.5986	62.718
2.5973	62.549
2.5960	62.449
2.5947	62.398
2.5934	62.394
2.5921	62.442
2.5908	62.511
2.5895	62.546
2.5882	62.458
2.5869	62.341
2.5856	62.282
2.5843	62.229
2.5830	62.189
2.5817	62.178
2.5805	62.161
2.5792	62.141
2.5779	62.061
2.5766	61.947
2.5753	61.872
2.5741	61.784
2.5728	61.701
2.5715	61.653
2.5702	61.613
2.5690	61.549
2.5677	61.441
2.5664	61.297
2.5651	61.137
2.5639	60.925
2.5626	60.715
2.5613	60.540
2.5601	60.350
2.5588	60.130
2.5575	59.885
2.5563	59.582
2.5550	59.212
2.5538	58.807
2.5525	58.408
2.5513	58.006
2.5500	57.600
2.5487	57.201
2.5475	56.800
2.5462	56.384
2.5450	55.958
2.5437	55.539
2.5425	55.142
2.5413	54.769
2.5400	54.447
2.5388	54.183
2.5375	53.995
2.5363	53.893
2.5350	53.879
2.5338	53.935
2.5326	54.036
2.5313	54.153
2.5301	54.299
2.5289	54.477
2.5276	54.676
2.5264	54.891
2.5252	55.127
2.5239	55.350
2.5227	55.552
2.5215	55.742
2.5202	55.927
2.5190	56.110
2.5178	56.278
2.5166	56.434
2.5154	56.581
2.5141	56.710
2.5129	56.820
2.5117	56.912
2.5105	56.997
2.5093	57.078
2.5081	57.134
2.5068	57.177
2.5056	57.218
2.5044	57.273
2.5032	57.337
2.5020	57.386
2.5008	57.444
2.4996	57.499
2.4984	57.537
2.4972	57.583
2.4960	57.644
2.4948	57.716
2.4936	57.801
2.4924	57.881
2.4912	57.962
2.4900	58.040
2.4888	58.120
2.4876	58.210
2.4864	58.305
2.4852	58.393
2.4840	58.485
2.4828	58.594
2.4816	58.716
2.4805	58.851
2.4793	58.987
2.4781	59.117
2.4769	59.250
2.4757	59.384
2.4745	59.505
2.4734	59.620
2.4722	59.732
2.4710	59.871
2.4698	60.032
2.4686	60.178
2.4675	60.307
2.4663	60.450
2.4651	60.590
2.4640	60.693
2.4628	60.777
2.4616	60.879
2.4604	60.988
2.4593	61.086
2.4581	61.178
2.4569	61.278
2.4558	61.380
2.4546	61.476
2.4535	61.575
2.4523	61.676
2.4511	61.745
2.4500	61.819
2.4488	61.894
2.4477	61.952
2.4465	62.007
2.4454	62.064
2.4442	62.134
2.4431	62.217
2.4419	62.262
2.4408	62.305
2.4396	62.365
2.4385	62.418
2.4373	62.459
2.4362	62.491
2.4350	62.547
2.4339	62.595
2.4327	62.615
2.4316	62.664
2.4305	62.728
2.4293	62.770
2.4282	62.806
2.4270	62.864
2.4259	62.946
2.4248	62.996
2.4236	63.015
2.4225	63.056
2.4214	63.104
2.4202	63.124
2.4191	63.131
2.4180	63.147
2.4169	63.181
2.4157	63.215
2.4146	63.228
2.4135	63.252
2.4124	63.287
2.4112	63.307
2.4101	63.316
2.4090	63.320
2.4079	63.328
2.4068	63.331
2.4056	63.314
2.4045	63.287
2.4034	63.265
2.4023	63.281
2.4012	63.307
2.4001	63.297
2.3990	63.284
2.3979	63.274
2.3967	63.258
2.3956	63.246
2.3945	63.256
2.3934	63.298
2.3923	63.322
2.3912	63.327
2.3901	63.347
2.3890	63.374
2.3879	63.387
2.3868	63.392
2.3857	63.405
2.3846	63.414
2.3835	63.390
2.3824	63.355
2.3813	63.318
2.3802	63.268
2.3791	63.197
2.3781	63.146
2.3770	63.144
2.3759	63.150
2.3748	63.133
2.3737	63.091
2.3726	63.040
2.3715	62.977
2.3704	62.883
2.3694	62.794
2.3683	62.710
2.3672	62.620
2.3661	62.553
2.3650	62.472
2.3640	62.370
2.3629	62.280
2.3618	62.171
2.3607	62.038
2.3597	61.867
2.3586	61.686
2.3575	61.532
2.3564	61.363
2.3554	61.161
2.3543	60.973
2.3532	60.799
2.3522	60.632
2.3511	60.457
2.3500	60.292
2.3490	60.147
2.3479	59.992
2.3468	59.829
2.3458	59.684
2.3447	59.569
2.3436	59.480
2.3426	59.407
2.3415	59.348
2.3405	59.323
2.3394	59.315
2.3384	59.322
2.3373	59.334
2.3363	59.353
2.3352	59.387
2.3342	59.406
2.3331	59.421
2.3321	59.484
2.3310	59.570
2.3300	59.633
2.3289	59.676
2.3279	59.755
2.3268	59.865
2.3258	59.968
2.3247	60.054
2.3237	60.134
2.3226	60.224
2.3216	60.294
2.3206	60.334
2.3195	60.395
2.3185	60.471
2.3175	60.541
2.3164	60.572
2.3154	60.590
2.3144	60.662
2.3133	60.750
2.3123	60.820
2.3113	60.874
2.3102	60.912
2.3092	60.937
2.3082	60.939
2.3071	60.941
2.3061	60.954
2.3051	60.977
2.3041	61.016
2.3030	61.039
2.3020	61.047
2.3010	61.075
2.3000	61.112
2.2990	61.147
2.2979	61.205
2.2969	61.290
2.2959	61.384
2.2949	61.464
2.2939	61.516
2.2929	61.546
2.2918	61.560
2.2908	61.578
2.2898	61.598
2.2888	61.623
2.2878	61.655
2.2868	61.724
2.2858	61.820
2.2848	61.889
2.2838	61.936
2.2828	62.005
2.2818	62.055
2.2808	62.082
2.2798	62.135
2.2787	62.237
2.2777	62.341
2.2767	62.410
2.2757	62.454
2.2747	62.516
2.2738	62.567
2.2728	62.595
2.2718	62.644
2.2708	62.714
2.2698	62.749
2.2688	62.760
2.2678	62.764
2.2668	62.777
2.2658	62.800
2.2648	62.850
2.2638	62.923
2.2628	62.998
2.2618	63.055
2.2609	63.093
2.2599	63.122
2.2589	63.160
2.2579	63.185
2.2569	63.213
2.2559	63.242
2.2550	63.268
2.2540	63.306
2.2530	63.358
2.2520	63.433
2.2510	63.501
2.2501	63.515
2.2491	63.528
2.2481	63.543
2.2471	63.550
2.2462	63.551
2.2452	63.551
2.2442	63.557
2.2433	63.540
2.2423	63.538
2.2413	63.580
2.2403	63.615
2.2394	63.657
2.2384	63.698
2.2374	63.704
2.2365	63.695
2.2355	63.698
2.2345	63.748
2.2336	63.825
2.2326	63.893
2.2317	63.931
2.2307	63.946
2.2297	63.934
2.2288	63.902
2.2278	63.881
2.2269	63.883
2.2259	63.911
2.2250	63.940
2.2240	63.928
2.2231	63.919
2.2221	63.952
2.2211	63.973
2.2202	63.983
2.2192	63.992
2.2183	63.994
2.2173	63.985
2.2164	63.961
2.2155	63.935
2.2145	63.921
2.2136	63.914
2.2126	63.942
2.2117	63.974
2.2107	64.007
2.2098	64.053
2.2088	64.110
2.2079	64.139
2.2070	64.150
2.2060	64.152
2.2051	64.169
2.2041	64.158
2.2032	64.138
2.2023	64.141
2.2013	64.171
2.2004	64.194
2.1995	64.186
2.1985	64.157
2.1976	64.163
2.1967	64.171
2.1957	64.158
2.1948	64.149
2.1939	64.157
2.1930	64.163
2.1920	64.146
2.1911	64.148
2.1902	64.185
2.1893	64.219
2.1883	64.235
2.1874	64.221
2.1865	64.204
2.1856	64.188
2.1846	64.172
2.1837	64.155
2.1828	64.168
2.1819	64.198
2.1810	64.216
2.1800	64.229
2.1791	64.261
2.1782	64.303
2.1773	64.342
2.1764	64.354
2.1755	64.336
2.1746	64.299
2.1736	64.261
2.1727	64.225
2.1718	64.207
2.1709	64.216
2.1700	64.223
2.1691	64.220
2.1682	64.196
2.1673	64.183
2.1664	64.194
2.1655	64.161
2.1646	64.117
2.1637	64.079
2.1628	64.039
2.1619	64.054
2.1610	64.097
2.1601	64.154
2.1592	64.220
2.1583	64.246
2.1574	64.244
2.1565	64.219
2.1556	64.198
2.1547	64.192
2.1538	64.164
2.1529	64.159
2.1520	64.174
2.1511	64.159
2.1502	64.146
2.1493	64.179
2.1484	64.219
2.1475	64.260
2.1466	64.280
2.1458	64.277
2.1449	64.247
2.1440	64.181
2.1431	64.154
2.1422	64.166
2.1413	64.177
2.1404	64.258
2.1396	64.354
2.1387	64.397
2.1378	64.409
2.1369	64.444
2.1360	64.483
2.1352	64.477
2.1343	64.455
2.1334	64.445
2.1325	64.408
2.1316	64.370
2.1308	64.350
2.1299	64.371
2.1290	64.412
2.1281	64.427
2.1273	64.431
2.1264	64.433
2.1255	64.425
2.1247	64.425
2.1238	64.443
2.1229	64.451
2.1220	64.448
2.1212	64.432
2.1203	64.421
2.1194	64.435
2.1186	64.468
2.1177	64.491
2.1168	64.511
2.1160	64.534
2.1151	64.540
2.1143	64.545
2.1134	64.561
2.1125	64.568
2.1117	64.561
2.1108	64.545
2.1100	64.500
2.1091	64.462
2.1082	64.462
2.1074	64.454
2.1065	64.423
2.1057	64.409
2.1048	64.419
2.1040	64.443
2.1031	64.443
2.1023	64.441
2.1014	64.478
2.1005	64.518
2.0997	64.531
2.0988	64.536
2.0980	64.558
2.0971	64.581
2.0963	64.585
2.0955	64.607
2.0946	64.631
2.0938	64.636
2.0929	64.574
2.0921	64.450
2.0912	64.366
2.0904	64.324
2.0895	64.337
2.0887	64.430
2.0879	64.546
2.0870	64.634
2.0862	64.667
2.0853	64.685
2.0845	64.718
2.0837	64.721
2.0828	64.725
2.0820	64.797
2.0812	64.668
2.0803	64.704
2.0795	64.638
2.0760	64.638
2.0720	64.638
2.0680	64.583
2.0640	64.867
2.0600	65.095
2.0560	65.151
2.0520	64.906
2.0480	64.740
2.0440	64.684
2.0400	64.723
2.0360	64.464
2.0320	64.191
2.0280	64.215
2.0240	64.456
2.0200	64.566
2.0160	64.230
2.0120	63.881
2.0080	63.867
2.0040	63.667
2.0000	63.613
1.9960	63.639
1.9920	63.692
1.9880	63.585
1.9840	63.400
1.9800	63.294
1.9760	63.228
1.9720	63.176
1.9680	63.215
1.9640	63.202
1.9600	63.360
1.9560	63.412
1.9520	63.544
1.9480	63.491
1.9440	63.491
1.9400	63.360
1.9360	63.294
1.9320	63.222
1.9280	63.215
1.9240	63.096
1.9200	63.002
1.9160	62.763
1.9120	62.949
1.9080	62.949
1.9040	62.851
1.9000	62.992
1.8960	63.110
1.8920	63.487
1.8880	63.249
1.8840	63.042
1.8800	63.344
1.8760	63.502
1.8720	63.493
1.8680	63.136
1.8640	62.885
1.8600	62.874
1.8560	62.890
1.8520	63.149
1.8480	63.210
1.8440	63.444
1.8400	63.604
1.8360	63.763
1.8320	63.735
1.8280	63.561
1.8240	63.236
1.8200	63.325
1.8160	63.543
1.8120	63.120
1.8080	63.248
1.8040	63.492
1.8000	63.402
1.7960	62.967
1.7920	63.248
1.7880	63.658
1.7840	63.568
1.7800	63.223
1.7760	62.672
1.7720	62.392
1.7680	62.332
1.7640	62.332
1.7600	62.252
1.7560	62.291
1.7520	62.319
1.7480	62.486
1.7440	62.726
1.7400	62.827
1.7360	63.377
1.7320	63.712
1.7280	63.816
1.7240	63.907
1.7200	63.893
1.7160	63.813
1.7120	63.865
1.7080	63.860
1.7040	63.517
1.7000	63.092
1.6960	63.424
1.6920	63.181
1.6880	63.283
1.6840	63.194
1.6800	63.771
1.6760	63.465
1.6720	63.743
1.6680	63.551
1.6640	63.334
1.6600	63.654
1.6560	62.747
1.6520	62.496
1.6480	62.914
1.6440	63.553
1.6400	63.526
1.6360	63.705
1.6320	63.501
1.6280	63.040
1.6240	63.206
1.6200	63.105
1.6160	62.902
1.6120	63.029
1.6080	63.424
1.6040	63.860
1.6000	63.642
1.5960	63.577
1.5920	64.002
1.5880	63.950
1.5840	63.642
1.5800	63.669
1.5760	63.584
1.5720	63.750
1.5680	63.634
1.5640	63.010
1.5600	62.759
1.5560	62.659
1.5520	62.682
1.5480	62.527
1.5440	62.654
1.5400	62.670
1.5360	63.392
1.5320	63.634
1.5280	63.686
1.5240	63.889
1.5200	63.328
1.5160	63.227
1.5120	63.111
1.5080	63.212
1.5040	63.159
1.5000	63.130
1.4960	63.234
1.4920	62.373
1.4880	62.262
1.4840	62.430
1.4800	62.230
1.4760	62.130
1.4720	62.170
1.4680	62.861
1.4640	63.155
1.4600	63.131
1.4560	63.259
1.4520	63.286
1.4480	63.133
1.4440	63.247
1.4400	63.242
1.4360	63.344
1.4320	63.537
1.4280	63.435
1.4240	63.371
1.4200	63.410
1.4160	63.410
1.4120	63.396
1.4080	63.295
1.4040	63.281
1.4000	63.016
1.3960	62.976
1.3920	62.498
1.3880	62.194
1.3840	62.053
1.3800	62.845
1.3760	63.562
1.3720	63.327
1.3680	63.598
1.3640	63.688
1.3600	63.583
1.3560	63.206
1.3520	63.341
1.3480	63.288
1.3440	63.365
1.3400	62.937
1.3360	63.125
1.3320	63.071
1.3280	63.082
1.3240	62.785
1.3200	62.915
1.3160	62.963
1.3120	63.003
1.3080	63.092
1.3040	62.991
1.3000	63.080
1.2960	62.991
1.2920	63.053
1.2880	63.064
1.2840	62.958
1.2800	62.952
1.2760	63.076
1.2720	62.985
1.2680	62.957
1.2640	63.341
1.2600	63.706
1.2560	63.694
1.2520	63.785
1.2480	63.642
1.2440	63.243
1.2400	62.889
1.2360	63.212
1.2320	63.263
1.2280	63.377
1.2240	62.991
1.2200	62.940
1.2160	62.951
1.2120	62.708
1.2080	62.416
1.2040	62.416
1.2000	62.416
1.1960	62.375
1.1920	62.316
1.1880	62.104
1.1840	62.145
1.1800	62.275
1.1760	62.216
1.1720	62.207
1.1680	62.207
1.1640	62.038
1.1600	62.176
1.1560	62.154
1.1520	62.090
1.1480	62.875
1.1440	62.744
1.1400	62.704
1.1360	63.014
1.1320	62.773
1.1280	62.732
1.1240	62.521
1.1200	62.257
1.1160	63.124
1.1120	63.611
1.1080	63.378
1.1040	62.993
1.1000	62.924
1.0960	63.509
1.0920	62.932
1.0880	62.902
1.0840	63.206
1.0800	62.741
1.0760	63.073
1.0720	62.971
1.0680	62.293
1.0640	62.082
1.0600	62.370
1.0560	62.423
1.0520	62.325
1.0480	62.680
1.0440	62.901
1.0400	63.061
1.0360	63.223
1.0320	62.951
1.0280	63.202
1.0240	63.122
1.0200	63.212
1.0160	63.172
1.0120	62.640
1.0080	63.021
1.0040	63.212
1.0000	62.510
0.99600	62.771
0.99200	62.790
0.98800	62.751
0.98400	62.352
0.98000	63.274
0.97600	63.132
0.97200	62.700
0.96800	62.821
0.96400	62.841
0.96000	63.092
0.95600	63.143
0.95200	62.902
0.94800	62.992
0.94400	62.992
0.94000	62.981
0.93600	62.881
0.93200	63.021
0.92800	62.990
0.92400	63.120
0.92000	62.722
0.91600	63.110
0.91200	63.060
0.90800	63.160
0.90400	62.881
0.90000	63.070
0.89600	62.931
0.89200	62.752
0.88800	62.981
0.88400	62.812
0.88000	62.803
0.87600	62.684
0.87200	62.945
0.86800	62.663
0.86400	62.724
0.86000	62.717
0.85600	62.613
0.85200	62.572
0.84800	62.475
0.84400	62.268
0.84000	62.268
0.83600	62.612
0.83200	62.027
0.82800	62.250
0.82400	62.371
0.82000	62.855
0.81600	62.411
0.81200	62.163
0.80800	62.803
0.80400	62.613
0.80000	62.463
0.79900	61.771
0.79800	61.771
0.79700	61.909
0.79600	62.315
0.79500	62.315
0.79400	62.644
0.79300	62.298
0.79200	62.258
0.79100	62.198
0.79000	62.312
0.78900	62.355
0.78800	62.047
0.78700	61.909
0.78600	62.128
0.78500	62.355
0.78400	62.547
0.78300	62.644
0.78200	62.071
0.78100	61.971
0.78000	62.352
0.77900	62.622
0.77800	62.507
0.77700	62.587
0.77600	62.128
0.77500	61.915
0.77400	62.012
0.77300	62.108
0.77200	62.338
0.77100	62.245
0.77000	61.886
0.76900	61.674
0.76800	61.952
0.76700	62.487
0.76600	62.487
0.76500	62.105
0.76400	62.834
0.76300	62.915
0.76200	62.609
0.76100	62.521
0.76000	62.065
0.75900	62.185
0.75800	62.185
0.75700	61.895
0.75600	62.122
0.75500	62.447
0.75400	62.986
0.75300	62.338
0.75200	62.589
0.75100	62.395
0.75000	62.185
0.74900	62.316
0.74800	62.509
0.74700	62.316
0.74600	62.395
0.74500	62.219
0.74400	62.446
0.74300	62.072
0.74200	61.905
0.74100	62.533
0.74000	62.633
0.73900	62.350
0.73800	62.447
0.73700	62.219
0.73600	61.945
0.73500	61.831
0.73400	61.961
0.73300	62.190
0.73200	62.497
0.73100	62.443
0.73000	61.889
0.72900	62.618
0.72800	62.986
0.72700	62.637
0.72600	62.908
0.72500	62.322
0.72400	62.190
0.72300	62.287
0.72200	62.113
0.72100	62.345
0.72000	62.246
0.71900	62.786
0.71800	62.845
0.71700	63.080
0.71600	63.139
0.71500	62.692
0.71400	62.692
0.71300	62.517
0.71200	62.766
0.71100	62.297
0.71000	62.431
0.70900	62.551
0.70800	62.668
0.70700	62.320
0.70600	62.533
0.70500	62.787
0.70400	62.471
0.70300	62.295
0.70200	62.589
0.70100	62.104
0.70000	62.293
0.69900	62.819
0.69800	62.633
0.69700	62.875
0.69600	62.637
0.69500	62.655
0.69400	62.655
0.69300	62.896
0.69200	63.017
0.69100	63.256
0.69000	63.396
0.68900	63.577
0.68800	63.056
0.68700	63.056
0.68600	63.056
0.68500	63.176
0.68400	63.256
0.68300	63.256
0.68200	62.996
0.68100	62.996
0.68000	63.176
0.67900	63.136
0.67800	63.276
0.67700	62.755
0.67600	62.755
0.67500	63.236
0.67400	63.236
0.67300	63.437
0.67200	63.096
0.67100	63.357
0.67000	63.398
0.66900	63.659
0.66800	62.995
0.66700	62.894
0.66600	62.734
0.66500	62.474
0.66400	62.596
0.66300	62.737
0.66200	63.175
0.66100	63.175
0.66000	63.055
0.65900	63.662
0.65800	63.864
0.65700	63.438
0.65600	63.237
0.65500	63.196
0.65400	63.076
0.65300	62.956
0.65200	62.856
0.65100	62.736
0.65000	62.717
0.64900	62.540
0.64800	62.739
0.64700	63.196
0.64600	63.763
0.64500	63.661
0.64400	63.662
0.64300	63.540
0.64200	63.337
0.64100	63.276
0.64000	63.601
0.63900	63.682
0.63800	63.398
0.63700	62.996
0.63600	62.717
0.63500	62.796
0.63400	62.856
0.63300	62.996
0.63200	62.836
0.63100	63.236
0.63000	63.156
0.62900	62.736
0.62800	62.677
0.62700	62.976
0.62600	63.036
0.62500	63.237
0.62400	63.277
0.62300	63.196
0.62200	63.475
0.62100	63.415
0.62000	63.498
0.61900	64.128
0.61800	64.439
0.61700	64.049
0.61600	63.763
0.61500	63.944
0.61400	63.398
0.61300	62.856
0.61200	63.338
0.61100	63.561
0.61000	63.601
0.60900	63.540
0.60800	63.378
0.60700	63.377
0.60600	63.397
0.60500	63.236
0.60400	63.236
0.60300	63.157
0.60200	63.238
0.60100	63.135
0.60000	63.196
0.59900	62.764
0.59800	62.333
0.59700	62.948
0.59600	62.823
0.59500	62.686
0.59400	62.866
0.59300	63.258
0.59200	63.033
0.59100	63.282
0.59000	63.071
0.58900	63.199
0.58800	63.344
0.58700	63.220
0.58600	63.344
0.58500	63.549
0.58400	62.744
0.58300	63.075
0.58200	62.866
0.58100	62.805
0.58000	63.302
0.57900	63.426
0.57800	63.364
0.57700	63.322
0.57600	63.116
0.57500	63.589
0.57400	63.876
0.57300	63.604
0.57200	63.460
0.57100	63.908
0.57000	63.662
0.56900	63.095
0.56800	63.399
0.56700	63.541
0.56600	63.705
0.56500	63.644
0.56400	63.217
0.56300	63.360
0.56200	63.401
0.56100	63.299
0.56000	63.344
0.55900	63.178
0.55800	63.178
0.55700	63.357
0.55600	63.342
0.55500	63.030
0.55400	63.144
0.55300	63.242
0.55200	63.119
0.55100	62.994
0.55000	62.671
0.54900	63.316
0.54800	62.769
0.54700	62.911
0.54600	63.300
0.54500	63.316
0.54400	63.084
0.54300	63.634
0.54200	63.593
0.54100	63.391
0.54000	63.392
0.53900	63.400
0.53800	63.865
0.53700	63.686
0.53600	63.282
0.53500	63.324
0.53400	63.644
0.53300	63.258
0.53200	62.853
0.53100	62.796
0.53000	62.712
0.52900	62.600
0.52800	62.745
0.52700	62.587
0.52600	62.788
0.52500	63.089
0.52400	62.904
0.52300	63.232
0.52200	63.492
0.52100	63.333
0.52000	63.482
0.51900	63.322
0.51800	63.147
0.51700	63.206
0.51600	62.745
0.51500	62.617
0.51400	62.845
0.51300	62.903
0.51200	62.558
0.51100	62.301
0.51000	62.630
0.50900	62.415
0.50800	62.803
0.50700	62.949
0.50600	62.991
0.50500	62.414
0.50400	62.933
0.50300	63.326
0.50200	63.093
0.50100	63.532
0.50000	63.285
0.49900	62.300
0.49800	62.817
0.49700	62.673
0.49600	62.443
0.49500	62.716
0.49400	62.098
0.49300	62.471
0.49200	62.760
0.49100	62.848
0.49000	63.064
0.48900	62.860
0.48800	63.018
0.48700	62.571
0.48600	62.180
0.48500	62.045
0.48400	62.554
0.48300	62.932
0.48200	62.642
0.48100	62.136
0.48000	62.140
0.47900	62.664
0.47800	62.942
0.47700	62.305
0.47600	62.535
0.47500	62.114
0.47400	62.767
0.47300	62.444
0.47200	62.533
0.47100	62.564
0.47000	62.665
0.46900	61.861
0.46800	62.202
0.46700	61.872
0.46600	62.232
0.46500	61.815
0.46400	62.257
0.46300	62.009
0.46200	62.486
0.46100	61.995
0.46000	61.812
0.45900	63.848
0.45800	63.896
0.45700	63.661
0.45600	63.676
0.45500	63.397
0.45400	63.541
0.45300	63.208
0.45200	62.925
0.45100	63.001
0.45000	63.394
0.44900	63.673
0.44800	63.391
0.44700	63.347
0.44600	63.488
0.44500	63.071
0.44400	63.074
0.44300	63.064
0.44200	63.188
0.44100	63.453
0.44000	63.342
0.43900	63.042
0.43800	63.172
0.43700	62.900
0.43600	63.217
0.43500	63.335
0.43400	63.225
0.43300	63.058
0.43200	63.221
0.43100	63.186
0.43000	62.988
0.42900	63.264
0.42800	62.773
0.42700	62.682
0.42600	62.972
0.42500	62.636
0.42400	62.752
0.42300	63.264
0.42200	62.841
0.42100	62.634
0.42000	63.476
0.41900	62.856
0.41800	62.518
0.41700	62.277
0.41600	62.588
0.41500	62.746
0.41400	62.766
0.41300	62.215
0.41200	62.277
0.41100	62.204
0.41000	61.884
0.40900	62.164
0.40800	62.546
0.40700	62.603
0.40600	62.075
0.40500	62.067
0.40400	62.238
0.40300	62.025
0.40200	62.295
0.40100	62.246
0.40000	62.253
