Name: Quartz SiO_2
Type: Mineral
Class: Silicates
Subclass: Tectosilicates
Particle Size: 45-125um
Sample No.: TS-1B
Owner: JPL
Wavelength range: IR
Origin: Brazil, Minas Gerais
Collected by Burminco
Description:  Smoky quartz. 





Measurement: Hemispherical reflectance
First Column: X
Second Column: Y
X Units:  Wavelength (micrometers)
Y Units:  Reflectance (percent)
First X Value: 15.3853
Last X Value: 2.00032
Number of X Values: 2256
Additional information: ts01ba.txt
 
15.3853	7.12845
15.3397	7.48859
15.2945	7.42381
15.2495	7.03643
15.2048	7.05989
15.1603	7.1895
15.1161	7.01147
15.0722	6.78202
15.0285	6.51446
14.9851	6.25577
14.9419	6.17967
14.8989	6.10928
14.8563	6.17038
14.8138	5.92616
14.7716	5.43765
14.7296	5.19564
14.6879	5.21144
14.6464	5.05871
14.6052	4.88229
14.5641	4.86644
14.5233	4.56169
14.4828	4.6062
14.4424	4.81648
14.4023	4.90201
14.3624	4.40656
14.3227	3.42074
14.2833	2.81874
14.244	2.78586
14.205	3.19325
14.1662	3.74449
14.1276	4.12612
14.0892	4.44707
14.051	4.48657
14.0131	4.62614
13.9753	4.94369
13.9377	5.07141
13.9004	5.18539
13.8632	5.49754
13.8262	5.71162
13.7895	5.78962
13.7529	5.93928
13.7165	5.94693
13.6803	5.7996
13.6443	5.82137
13.6085	5.91854
13.5729	5.8925
13.5374	5.79208
13.5022	5.87281
13.4671	5.89266
13.4322	5.84166
13.3975	5.84498
13.363	5.88285
13.3286	5.9808
13.2944	6.01335
13.2604	6.08127
13.2266	6.19446
13.193	6.10529
13.1595	6.15036
13.1262	6.43283
13.093	6.67833
13.06	6.99049
13.0272	7.2337
12.9946	7.50604
12.9621	8.16384
12.9298	9.15754
12.8976	10.2479
12.8656	11.5465
12.8337	12.6598
12.8021	13.123
12.7705	12.857
12.7391	11.9073
12.7079	10.4453
12.6769	8.94754
12.6459	8.0712
12.6152	8.11789
12.5845	8.99231
12.5541	9.99698
12.5238	10.7796
12.4936	11.1613
12.4635	10.8953
12.4337	9.92724
12.4039	7.78598
12.3743	4.82018
12.3448	2.47622
12.3155	1.38524
12.2863	1.08926
12.2573	0.989549
12.2284	1.27209
12.1996	1.50356
12.171	1.74129
12.1425	2.07688
12.1141	2.21132
12.0859	2.46071
12.0578	2.72307
12.0298	2.95943
12.0019	3.16051
11.9742	3.2493
11.9466	3.52172
11.9192	3.7592
11.8918	3.89272
11.8646	4.00887
11.8375	4.1276
11.8106	4.37952
11.7837	4.64982
11.757	4.75145
11.7304	4.89977
11.7039	4.99119
11.6776	5.01859
11.6513	4.99789
11.6252	5.05195
11.5992	5.31739
11.5733	5.52145
11.5475	5.55837
11.5219	5.74289
11.4963	5.93339
11.4709	5.89231
11.4455	5.73249
11.4203	5.8612
11.3952	6.09027
11.3702	6.2336
11.3454	6.31755
11.3206	6.34935
11.2959	6.26675
11.2714	6.24782
11.2469	6.33802
11.2226	6.44177
11.1983	6.38189
11.1742	6.4008
11.1502	6.44691
11.1263	6.66362
11.1024	6.79984
11.0787	6.78254
11.0551	6.87685
11.0316	7.01365
11.0081	7.07672
10.9848	6.99578
10.9616	6.95876
10.9385	7.01171
10.9154	7.17873
10.8925	7.24111
10.8697	7.18545
10.8469	7.20694
10.8243	7.28751
10.8017	7.28054
10.7793	7.1534
10.7569	7.13466
10.7346	7.1998
10.7125	7.18422
10.6904	7.1183
10.6684	7.17356
10.6465	7.19143
10.6247	7.21424
10.6029	7.24351
10.5813	7.31647
10.5597	7.35053
10.5383	7.50205
10.5169	7.53712
10.4956	7.4717
10.4744	7.44472
10.4533	7.54433
10.4323	7.54839
10.4113	7.64562
10.3904	7.7047
10.3697	7.7055
10.349	7.79696
10.3284	7.83731
10.3078	7.82585
10.2874	7.87908
10.267	7.97462
10.2467	8.05239
10.2265	8.14359
10.2064	8.31279
10.1863	8.38073
10.1663	8.48688
10.1464	8.55077
10.1266	8.7232
10.1069	8.79779
10.0872	8.7735
10.0676	8.8213
10.0481	9.04065
10.0287	9.29868
10.0093	9.4002
9.99005	9.45704
9.97084	9.52602
9.95169	9.63744
9.93263	9.88028
9.91364	10.0849
9.89472	10.3034
9.87587	10.537
9.8571	10.6358
9.83839	10.8895
9.81976	11.2224
9.80119	11.4228
9.78271	11.7545
9.76428	12.1272
9.74592	12.4251
9.72764	12.8002
9.70943	13.2478
9.69128	13.6123
9.6732	13.9216
9.65518	14.3304
9.63724	14.9467
9.61935	15.4935
9.60155	15.8415
9.5838	16.3405
9.56611	17.0859
9.5485	17.7461
9.53094	18.4685
9.51345	19.5919
9.49604	20.8529
9.47867	22.0897
9.46137	23.5346
9.44414	25.3479
9.42697	27.6148
9.40986	30.2353
9.39281	33.4949
9.37583	37.0639
9.35891	40.539
9.34204	43.7723
9.32524	46.5625
9.3085	48.7858
9.29182	50.3511
9.27519	51.4423
9.25863	52.256
9.24213	52.818
9.22568	53.2266
9.2093	53.5985
9.19297	53.8987
9.17669	54.0718
9.16048	54.3193
9.14433	54.6433
9.12823	54.7932
9.11218	54.8709
9.0962	54.9523
9.08027	55.1642
9.06439	55.2695
9.04858	55.3094
9.03281	55.3163
9.0171	55.262
9.00145	55.2298
8.98585	55.2134
8.9703	55.1555
8.9548	55.1563
8.93937	55.1008
8.92398	54.9401
8.90865	54.6321
8.89337	54.4192
8.87814	54.2136
8.86296	53.9195
8.84784	53.5589
8.83277	53.0099
8.81774	52.2706
8.80277	51.5913
8.78786	50.931
8.77298	50.2604
8.75816	49.6347
8.7434	49.0135
8.72868	48.1992
8.714	47.1763
8.69938	45.8348
8.68481	43.9961
8.67029	41.0087
8.65581	36.6321
8.64139	32.1794
8.62701	30.1106
8.61268	32.1164
8.5984	36.8377
8.58416	41.4593
8.56997	44.7126
8.55583	46.8055
8.54174	48.1181
8.52769	48.9604
8.51368	49.3954
8.49973	49.5459
8.48582	49.5878
8.47195	49.617
8.45813	49.6423
8.44436	49.3866
8.43062	49.0882
8.41693	48.8144
8.4033	48.5639
8.3897	48.283
8.37614	47.9491
8.36264	47.5897
8.34917	47.3615
8.33574	47.1378
8.32236	46.9061
8.30903	46.792
8.29573	46.6783
8.28248	46.5326
8.26927	46.4608
8.2561	46.3826
8.24298	46.1424
8.2299	45.6998
8.21685	45.2046
8.20385	44.3985
8.19089	43.308
8.17797	42.0482
8.16509	40.4831
8.15225	38.3966
8.13946	35.968
8.1267	33.4639
8.11398	31.0333
8.10131	28.7886
8.08867	26.754
8.07606	24.6888
8.0635	22.7087
8.05099	21.0534
8.0385	19.5839
8.02606	18.117
8.01366	16.7358
8.00129	15.5223
7.98896	14.3925
7.97667	13.2926
7.96442	12.1284
7.9522	10.9562
7.94002	9.91519
7.92788	8.92759
7.91578	7.99946
7.90371	7.17495
7.89168	6.49401
7.87969	5.85087
7.86773	5.32854
7.85581	4.92171
7.84392	4.4637
7.83207	4.02398
7.82026	3.63921
7.80849	3.32772
7.79674	3.17047
7.78503	3.00615
7.77337	2.74356
7.76173	2.49426
7.75012	2.23551
7.73856	1.97732
7.72703	1.82302
7.71553	1.68143
7.70406	1.45495
7.69263	1.2764
7.68123	1.20914
7.66987	1.13121
7.65855	0.995062
7.64725	0.864612
7.63598	0.787674
7.62475	0.781518
7.61356	0.624864
7.60239	0.407528
7.59126	0.406693
7.58017	0.399705
7.5691	0.2882
7.55806	0.276995
7.54707	0.21343
7.5361	0.117209
7.52516	0.102158
7.51425	0.182254
7.50338	0.18755
7.49253	0.107917
7.48172	0.0982838
7.47094	0.126525
7.46019	0.162445
7.44947	0.132024
7.43879	0.0995911
7.42813	0.125826
7.4175	0.0921384
7.4069	0.0523363
7.39634	0.0289446
7.3858	-0.0446669
7.37529	-0.0389225
7.36482	0.0284201
7.35437	0.146804
7.34396	0.151824
7.33357	0.0338252
7.32321	0.019353
7.31288	0.0638311
7.30258	0.0203815
7.29231	0.00149387
7.28207	0.0117288
7.27185	0.00340856
7.26167	0.0888634
7.25152	0.146259
7.24139	0.169635
7.23129	0.172207
7.22122	0.162854
7.21117	0.140719
7.20116	0.21743
7.19117	0.3113
7.18121	0.347045
7.17128	0.324273
7.16137	0.346187
7.1515	0.37389
7.14164	0.381459
7.13182	0.371223
7.12203	0.35429
7.11225	0.435503
7.10251	0.563555
7.0928	0.525136
7.08311	0.522767
7.07344	0.601288
7.06381	0.595102
7.0542	0.607126
7.04461	0.60571
7.03506	0.538493
7.02552	0.678655
7.01601	0.833151
7.00653	0.867187
6.99708	0.812806
6.98765	0.872774
6.97824	0.927559
6.96886	0.991832
6.95951	1.06619
6.95018	1.06997
6.94087	1.1125
6.9316	1.17869
6.92234	1.27063
6.91311	1.31628
6.90391	1.31285
6.89473	1.33692
6.88557	1.37141
6.87644	1.35222
6.86733	1.32742
6.85824	1.31517
6.84918	1.30818
6.84015	1.34987
6.83114	1.36096
6.82215	1.31571
6.81319	1.30427
6.80424	1.32546
6.79532	1.35028
6.78643	1.34108
6.77756	1.23362
6.76871	1.18119
6.75989	1.26075
6.75109	1.25023
6.74231	1.15996
6.73355	1.13435
6.72482	1.10505
6.71611	1.10564
6.70742	1.16322
6.69875	1.20953
6.69011	1.26383
6.68149	1.24346
6.67289	1.23379
6.66431	1.32667
6.65576	1.38884
6.64722	1.351
6.63871	1.41658
6.63022	1.48504
6.62175	1.48862
6.61331	1.43727
6.60488	1.33426
6.59648	1.27882
6.5881	1.2646
6.57974	1.32783
6.5714	1.35868
6.56308	1.319
6.55478	1.32599
6.54651	1.388
6.53825	1.41603
6.53001	1.50112
6.5218	1.64423
6.51361	1.83735
6.50544	2.06313
6.49729	2.29527
6.48915	2.5366
6.48104	2.76733
6.47295	2.93266
6.46488	3.17245
6.45683	3.42513
6.4488	3.56704
6.44079	3.61093
6.4328	3.71298
6.42482	3.8621
6.41687	3.88969
6.40894	3.72038
6.40103	3.63643
6.39314	3.53316
6.38526	3.34195
6.37741	3.15167
6.36957	2.9099
6.36176	2.69758
6.35396	2.57141
6.34618	2.4604
6.33843	2.3643
6.33069	2.17776
6.32297	2.05223
6.31527	2.00521
6.30758	1.84614
6.29992	1.75449
6.29227	1.6971
6.28465	1.5588
6.27704	1.45683
6.26945	1.44289
6.26188	1.34388
6.25432	1.25709
6.24679	1.35253
6.23927	1.33886
6.23177	1.24135
6.22429	1.17192
6.21683	1.20031
6.20938	1.24253
6.20195	1.24386
6.19454	1.21933
6.18715	1.1975
6.17978	1.26595
6.17242	1.33846
6.16508	1.39901
6.15776	1.52929
6.15045	1.69304
6.14317	1.92285
6.1359	2.08914
6.12864	2.25571
6.12141	2.472
6.11419	2.65882
6.10699	2.78728
6.0998	2.87806
6.09263	3.06884
6.08549	3.26721
6.07835	3.41856
6.07123	3.49595
6.06413	3.59185
6.05705	3.71111
6.04998	3.71702
6.04293	3.59296
6.0359	3.56016
6.02888	3.54702
6.02187	3.50241
6.01489	3.47629
6.00792	3.42715
6.00096	3.31158
5.99403	3.14066
5.98711	2.95235
5.9802	2.80553
5.97331	2.69407
5.96644	2.50602
5.95958	2.2961
5.95274	2.17056
5.94591	2.13508
5.9391	2.19214
5.9323	2.24904
5.92552	2.33925
5.91876	2.49387
5.91201	2.61121
5.90528	2.75322
5.89856	2.98797
5.89186	3.08503
5.88517	3.28095
5.8785	3.58076
5.87184	3.72316
5.8652	3.91201
5.85857	4.14276
5.85196	4.39253
5.84536	4.69054
5.83878	4.89976
5.83221	5.14801
5.82566	5.48212
5.81912	5.72239
5.81259	5.81831
5.80608	5.98533
5.79959	6.2614
5.79311	6.47491
5.78665	6.69541
5.78019	7.02855
5.77376	7.33482
5.76734	7.60282
5.76093	7.75867
5.75453	7.96739
5.74815	8.29881
5.74179	8.53246
5.73543	8.66284
5.7291	8.70625
5.72277	8.81449
5.71646	8.93709
5.71017	8.91568
5.70389	8.72539
5.69762	8.57538
5.69136	8.39462
5.68513	8.01069
5.6789	7.56237
5.67268	7.01344
5.66648	6.38105
5.6603	5.7974
5.65413	5.25183
5.64797	4.77597
5.64182	4.40871
5.63569	3.95673
5.62957	3.57714
5.62347	3.36961
5.61737	3.19253
5.61129	3.02082
5.60522	2.96071
5.59917	2.91217
5.59313	2.83852
5.5871	2.86327
5.58109	2.88842
5.57509	2.85237
5.5691	2.80422
5.56312	2.80826
5.55716	2.91737
5.55121	3.02062
5.54528	3.05272
5.53935	3.11371
5.53344	3.25891
5.52754	3.39708
5.52166	3.57926
5.51578	3.7988
5.50992	3.99636
5.50407	4.17686
5.49823	4.33256
5.49241	4.59343
5.4866	4.85886
5.4808	5.07903
5.47501	5.2894
5.46923	5.49776
5.46347	5.55444
5.45772	5.56937
5.45198	5.66982
5.44625	5.66106
5.44054	5.41278
5.43484	5.14013
5.42914	4.86377
5.42347	4.47141
5.4178	4.01771
5.41214	3.68376
5.4065	3.3769
5.40087	3.00695
5.39525	2.67686
5.38964	2.39193
5.38404	2.14995
5.37846	2.01189
5.37288	1.87056
5.36732	1.7912
5.36177	1.74569
5.35623	1.70711
5.35071	1.71577
5.34519	1.67728
5.33968	1.67938
5.33419	1.7192
5.32871	1.72659
5.32324	1.70226
5.31778	1.68339
5.31233	1.77649
5.30689	1.74022
5.30147	1.73344
5.29605	1.85394
5.29065	1.9342
5.28525	1.98623
5.27987	2.01327
5.2745	2.04546
5.26914	2.13755
5.26379	2.23947
5.25845	2.39862
5.25312	2.57526
5.24781	2.74441
5.2425	2.9787
5.23721	3.32764
5.23192	3.76073
5.22665	4.12794
5.22138	4.49076
5.21613	4.81621
5.21089	5.02033
5.20566	5.24392
5.20044	5.44344
5.19522	5.47177
5.19002	5.48736
5.18483	5.51762
5.17965	5.41581
5.17448	5.35718
5.16933	5.38693
5.16418	5.34204
5.15904	5.19888
5.15391	5.18418
5.14879	5.16753
5.14368	5.03692
5.13859	4.93707
5.1335	4.95035
5.12842	4.93808
5.12335	4.93568
5.1183	4.94245
5.11325	4.91939
5.10821	4.92041
5.10318	4.82313
5.09817	4.70108
5.09316	4.5374
5.08816	4.4116
5.08317	4.28082
5.07819	4.0626
5.07322	3.89153
5.06826	3.90006
5.06331	3.91234
5.05837	3.82541
5.05344	3.85062
5.04852	3.85864
5.04361	3.78419
5.03871	3.77377
5.03382	3.75991
5.02894	3.72084
5.02406	3.68623
5.0192	3.64557
5.01435	3.67542
5.0095	3.70159
5.00467	3.68376
4.99984	3.78758
4.99502	3.97296
4.99021	4.07543
4.98542	4.11847
4.98063	4.26985
4.97585	4.57898
4.97108	4.89013
4.96632	5.21468
4.96156	5.70997
4.95682	6.14727
4.95209	6.4787
4.94736	6.74832
4.94264	7.01624
4.93794	7.24139
4.93324	7.47597
4.92855	7.79914
4.92387	8.18946
4.9192	8.68959
4.91453	9.34721
4.90988	10.3491
4.90524	11.5465
4.9006	12.8966
4.89597	14.4039
4.89135	16.0675
4.88674	17.7487
4.88214	19.3983
4.87755	20.8761
4.87296	22.2569
4.86839	23.5944
4.86382	24.834
4.85926	25.9611
4.85471	26.999
4.85017	28.0133
4.84564	29.0089
4.84111	29.8681
4.8366	30.6989
4.83209	31.4765
4.82759	32.1599
4.8231	32.8516
4.81862	33.5355
4.81415	34.1592
4.80968	34.7686
4.80522	35.4541
4.80077	36.0945
4.79633	36.6851
4.7919	37.2948
4.78747	37.8502
4.78306	38.4186
4.77865	38.9204
4.77425	39.3706
4.76986	39.8386
4.76547	40.2865
4.7611	40.7099
4.75673	41.1308
4.75237	41.5089
4.74802	41.8543
4.74367	42.1612
4.73934	42.4165
4.73501	42.6388
4.73069	42.7565
4.72638	42.7295
4.72207	42.6239
4.71777	42.5256
4.71348	42.2143
4.7092	41.606
4.70493	40.8588
4.70066	39.8364
4.69641	38.6648
4.69216	37.4686
4.68791	36.5052
4.68368	36.0869
4.67945	36.1247
4.67523	36.6465
4.67102	37.5709
4.66682	38.6672
4.66262	39.826
4.65843	40.9757
4.65425	41.989
4.65007	42.9677
4.64591	43.9932
4.64175	45.0579
4.6376	46.1559
4.63345	47.2101
4.62932	48.1165
4.62519	48.8879
4.62106	49.5149
4.61695	50.0858
4.61284	50.5851
4.60874	50.9836
4.60465	51.3354
4.60056	51.6477
4.59648	51.9227
4.59241	52.0634
4.58835	52.1556
4.58429	52.2656
4.58024	52.3202
4.5762	52.2811
4.57216	52.0653
4.56814	51.8205
4.56411	51.5656
4.5601	51.1665
4.55609	50.6437
4.55209	49.8987
4.5481	48.9836
4.54411	48.0133
4.54013	46.941
4.53616	45.8156
4.5322	44.6335
4.52824	43.3718
4.52429	42.1025
4.52034	40.7649
4.51641	39.2772
4.51247	37.823
4.50855	36.396
4.50463	35.0714
4.50072	34.0233
4.49682	33.157
4.49292	32.4924
4.48903	32.021
4.48515	31.7097
4.48127	31.3926
4.4774	31.0366
4.47354	30.6548
4.46968	30.4105
4.46584	30.4384
4.46199	30.7757
4.45815	31.2422
4.45432	31.7773
4.4505	32.3965
4.44668	32.9077
4.44287	33.2985
4.43907	33.6986
4.43527	33.9827
4.43148	34.2405
4.4277	34.5986
4.42392	35.1583
4.42015	35.7673
4.41638	36.3237
4.41262	36.8347
4.40887	37.4215
4.40513	38.0567
4.40139	38.7033
4.39765	39.3998
4.39393	40.1605
4.39021	40.8819
4.38649	41.6992
4.38278	42.5658
4.37908	43.4285
4.37539	44.3038
4.3717	45.1526
4.36801	46.009
4.36434	46.8462
4.36067	47.6242
4.357	48.3143
4.35335	49.0211
4.34969	49.6592
4.34605	50.1883
4.34241	50.63
4.33877	50.9976
4.33514	51.3185
4.33152	51.6161
4.32791	51.7948
4.3243	51.8374
4.32069	51.7719
4.3171	51.7082
4.31351	51.6398
4.30992	51.533
4.30634	51.353
4.30277	51.1368
4.2992	51.0038
4.29564	50.8849
4.29208	50.8356
4.28853	50.8462
4.28499	50.9193
4.28145	51.1781
4.27792	51.5558
4.27439	51.9525
4.27087	52.3974
4.26735	52.8442
4.26384	53.283
4.26034	53.6597
4.25684	53.9453
4.25335	53.9709
4.24986	53.7955
4.24638	53.6136
4.24291	53.4642
4.23944	53.2555
4.23598	53.1038
4.23252	53.0556
4.22906	53.0905
4.22562	53.1893
4.22218	53.2808
4.21874	53.3452
4.21531	53.4078
4.21189	53.4484
4.20847	53.4736
4.20506	53.4067
4.20165	53.3897
4.19825	53.4427
4.19485	53.4989
4.19146	53.6749
4.18807	53.9625
4.18469	54.2006
4.18132	54.4727
4.17795	54.7992
4.17458	55.1735
4.17123	55.4942
4.16787	55.7618
4.16453	55.9592
4.16118	56.1511
4.15785	56.4022
4.15451	56.6704
4.15119	56.8992
4.14787	57.1193
4.14455	57.364
4.14124	57.6592
4.13794	57.8899
4.13464	58.1407
4.13134	58.4506
4.12805	58.722
4.12477	58.9691
4.12149	59.3347
4.11822	59.769
4.11495	60.1107
4.11168	60.4549
4.10843	60.9132
4.10517	61.3077
4.10192	61.6453
4.09868	61.9682
4.09545	62.2857
4.09221	62.5817
4.08899	62.9216
4.08576	63.2798
4.08255	63.5881
4.07933	63.8235
4.07613	64.0873
4.07292	64.3266
4.06973	64.4126
4.06654	64.4453
4.06335	64.5674
4.06017	64.7314
4.05699	64.778
4.05382	64.7293
4.05065	64.6826
4.04749	64.6165
4.04433	64.558
4.04118	64.5164
4.03803	64.4879
4.03489	64.4367
4.03175	64.3539
4.02862	64.2174
4.02549	64.1089
4.02237	64.0751
4.01925	64.0249
4.01614	63.957
4.01303	63.9482
4.00993	63.9706
4.00683	64.0295
4.00373	64.0783
4.00064	64.0899
3.99756	64.1579
3.99448	64.349
3.9914	64.4646
3.98833	64.5635
3.98527	64.7512
3.98221	64.9442
3.97915	65.2136
3.9761	65.4246
3.97305	65.564
3.97001	65.8291
3.96697	66.1212
3.96394	66.3358
3.96091	66.5767
3.95789	66.8826
3.95487	67.0717
3.95186	67.2578
3.94885	67.4991
3.94584	67.7624
3.94284	67.9919
3.93984	68.1865
3.93685	68.4163
3.93386	68.5922
3.93088	68.7364
3.9279	68.8483
3.92493	68.9228
3.92196	69.0353
3.919	69.0817
3.91604	69.0485
3.91308	68.9972
3.91013	68.93
3.90718	68.8025
3.90424	68.6877
3.9013	68.5801
3.89837	68.4732
3.89544	68.2789
3.89252	68.0462
3.8896	67.8382
3.88668	67.6309
3.88377	67.5066
3.88086	67.343
3.87796	67.0866
3.87506	66.9301
3.87217	66.8269
3.86928	66.6548
3.86639	66.5115
3.86351	66.3359
3.86064	66.2927
3.85776	66.4117
3.8549	66.3548
3.85203	66.2779
3.84917	66.2672
3.84631	66.2706
3.84346	66.3244
3.84062	66.3661
3.83777	66.4534
3.83494	66.6091
3.8321	66.6916
3.82927	66.7831
3.82644	66.9352
3.82362	67.0535
3.82081	67.1713
3.81799	67.3261
3.81518	67.4798
3.81238	67.5742
3.80958	67.682
3.80678	67.7934
3.80399	67.7375
3.8012	67.7021
3.79841	67.6634
3.79563	67.7285
3.79286	67.6922
3.79008	67.5586
3.78731	67.5138
3.78455	67.4284
3.78179	67.2579
3.77903	67.1397
3.77628	66.9737
3.77353	66.7741
3.77079	66.5869
3.76805	66.4277
3.76531	66.3073
3.76258	66.1324
3.75985	65.9395
3.75713	65.7878
3.7544	65.7449
3.75169	65.7036
3.74898	65.5499
3.74627	65.4871
3.74356	65.4383
3.74086	65.4176
3.73816	65.4639
3.73547	65.5497
3.73278	65.6428
3.7301	65.7451
3.72741	65.9047
3.72474	66.1002
3.72206	66.3177
3.71939	66.5402
3.71673	66.7885
3.71406	67.06
3.71141	67.3224
3.70875	67.6181
3.7061	67.9586
3.70345	68.2826
3.70081	68.6329
3.69817	68.8977
3.69553	69.2205
3.6929	69.7148
3.69027	70.0505
3.68765	70.3317
3.68503	70.7015
3.68241	71.0879
3.6798	71.438
3.67719	71.7416
3.67458	72.0411
3.67198	72.3185
3.66938	72.6016
3.66678	72.9321
3.66419	73.1545
3.66161	73.3385
3.65902	73.4999
3.65644	73.6905
3.65387	73.8463
3.65129	73.9022
3.64872	73.9824
3.64616	74.0796
3.64359	74.2165
3.64103	74.39
3.63848	74.4156
3.63593	74.3982
3.63338	74.4206
3.63084	74.4944
3.6283	74.5789
3.62576	74.5924
3.62322	74.5589
3.62069	74.5652
3.61817	74.6107
3.61564	74.6532
3.61312	74.6546
3.61061	74.6889
3.6081	74.7845
3.60559	74.8696
3.60308	74.8974
3.60058	74.9331
3.59808	75.0167
3.59558	75.1078
3.59309	75.2303
3.59061	75.3347
3.58812	75.3487
3.58564	75.4191
3.58316	75.5239
3.58069	75.6681
3.57822	75.8777
3.57575	75.9784
3.57328	76.0173
3.57082	76.1483
3.56836	76.2814
3.56591	76.4344
3.56346	76.5857
3.56101	76.7143
3.55857	76.8157
3.55613	76.8957
3.55369	77.005
3.55126	77.0953
3.54883	77.2017
3.5464	77.4473
3.54397	77.6509
3.54155	77.7287
3.53914	77.806
3.53672	77.9491
3.53431	78.1587
3.5319	78.2512
3.5295	78.2907
3.5271	78.3974
3.5247	78.4777
3.52231	78.5788
3.51991	78.6658
3.51753	78.7279
3.51514	78.6802
3.51276	78.6433
3.51038	78.5218
3.50801	78.3558
3.50563	78.3066
3.50327	78.3894
3.5009	78.4388
3.49854	78.5393
3.49618	78.6952
3.49382	78.8837
3.49147	79.049
3.48912	79.2505
3.48677	79.4557
3.48443	79.5711
3.48209	79.6166
3.47975	79.6804
3.47742	79.8034
3.47509	79.8541
3.47276	79.9398
3.47044	80.068
3.46812	80.1424
3.4658	80.2077
3.46348	80.2319
3.46117	80.2957
3.45886	80.3596
3.45656	80.334
3.45425	80.3356
3.45195	80.3036
3.44966	80.2214
3.44736	80.1913
3.44507	80.1514
3.44279	80.1159
3.4405	79.9777
3.43822	79.9019
3.43594	79.8356
3.43367	79.6863
3.43139	79.5503
3.42912	79.3676
3.42686	79.1621
3.42459	78.9103
3.42233	78.7469
3.42007	78.6548
3.41782	78.5372
3.41557	78.4653
3.41332	78.4566
3.41108	78.5073
3.40883	78.6986
3.40659	78.8409
3.40435	78.9613
3.40212	79.1303
3.39989	79.309
3.39766	79.4486
3.39544	79.609
3.39322	79.8254
3.391	79.8572
3.38878	79.8125
3.38657	79.8035
3.38436	79.7911
3.38215	79.6967
3.37994	79.5405
3.37774	79.5244
3.37554	79.6511
3.37335	79.7136
3.37115	79.6654
3.36896	79.8751
3.36678	80.1382
3.36459	80.4197
3.36241	80.7459
3.36023	80.8971
3.35805	80.9524
3.35588	81.0877
3.35371	81.2424
3.35154	81.3096
3.34938	81.3783
3.34721	81.4171
3.34505	81.4636
3.3429	81.517
3.34074	81.6352
3.33859	81.6747
3.33644	81.653
3.3343	81.6185
3.33215	81.5849
3.33001	81.6281
3.32788	81.7123
3.32574	81.7168
3.32361	81.7146
3.32148	81.7286
3.31936	81.7535
3.31723	81.7312
3.31511	81.7137
3.31299	81.681
3.31088	81.5925
3.30876	81.4161
3.30665	81.4552
3.30455	81.4848
3.30244	81.4299
3.30034	81.4076
3.29824	81.4828
3.29614	81.5656
3.29405	81.4785
3.29196	81.3452
3.28987	81.3007
3.28778	81.3032
3.2857	81.3081
3.28362	81.2785
3.28154	81.2776
3.27946	81.2441
3.27739	81.2596
3.27532	81.288
3.27325	81.2598
3.27119	81.2922
3.26913	81.3431
3.26707	81.3359
3.26501	81.2131
3.26295	81.1402
3.2609	81.2278
3.25885	81.2807
3.2568	81.2571
3.25476	81.3227
3.25272	81.277
3.25068	81.1377
3.24864	81.1742
3.24661	81.2386
3.24458	81.2911
3.24255	81.2442
3.24052	81.1866
3.2385	81.1508
3.23648	81.1822
3.23446	81.2188
3.23244	81.3076
3.23043	81.3314
3.22841	81.3109
3.2264	81.3067
3.2244	81.2982
3.22239	81.2262
3.22039	81.1245
3.21839	81.1205
3.2164	81.1737
3.2144	81.1061
3.21241	81.048
3.21042	81.0753
3.20844	81.1505
3.20645	81.1484
3.20447	81.0869
3.20249	80.9773
3.20051	80.9549
3.19854	80.9778
3.19657	80.9692
3.1946	80.9593
3.19263	80.9472
3.19067	80.9432
3.1887	80.8765
3.18674	80.7947
3.18479	80.7718
3.18283	80.7528
3.18088	80.7854
3.17893	80.8576
3.17698	80.8455
3.17504	80.7636
3.17309	80.6863
3.17115	80.6955
3.16921	80.703
3.16728	80.6969
3.16534	80.662
3.16341	80.5596
3.16148	80.467
3.15956	80.4272
3.15763	80.3406
3.15571	80.2638
3.15379	80.2157
3.15187	80.1633
3.14996	80.0361
3.14805	79.8312
3.14614	79.5788
3.14423	79.3991
3.14232	79.235
3.14042	79.0366
3.13852	78.7939
3.13662	78.6048
3.13472	78.4824
3.13283	78.4591
3.13094	78.4491
3.12905	78.4153
3.12716	78.4294
3.12528	78.4544
3.12339	78.5479
3.12151	78.6489
3.11964	78.6756
3.11776	78.7057
3.11589	78.8246
3.11401	78.9183
3.11214	79.0171
3.11028	79.1347
3.10841	79.2466
3.10655	79.2884
3.10469	79.3949
3.10283	79.5136
3.10098	79.6499
3.09912	79.8126
3.09727	79.9089
3.09542	79.9432
3.09358	79.9952
3.09173	79.9842
3.08989	80.0183
3.08805	80.0654
3.08621	80.0255
3.08437	79.9906
3.08254	79.9622
3.08071	79.9587
3.07888	79.9702
3.07705	79.9685
3.07523	79.9287
3.0734	79.8319
3.07158	79.6859
3.06977	79.5767
3.06795	79.5939
3.06613	79.4819
3.06432	79.31
3.06251	79.18
3.0607	79.0162
3.0589	78.8636
3.0571	78.84
3.05529	78.7379
3.05349	78.4656
3.0517	78.2404
3.0499	78.0899
3.04811	77.8913
3.04632	77.6681
3.04453	77.5102
3.04274	77.4236
3.04096	77.2699
3.03918	77.1514
3.0374	77.057
3.03562	76.9666
3.03384	76.8431
3.03207	76.8149
3.03029	76.8504
3.02852	76.8186
3.02676	76.8035
3.02499	76.9142
3.02323	76.9835
3.02146	77.0444
3.0197	77.0515
3.01795	77.108
3.01619	77.1848
3.01444	77.2182
3.01269	77.19
3.01094	77.3446
3.00919	77.5157
3.00744	77.5814
3.0057	77.6795
3.00396	77.8557
3.00222	77.9385
3.00048	77.9124
2.99875	77.9954
2.99701	78.0577
2.99528	78.1136
2.99355	78.2104
2.99183	78.2344
2.9901	78.1911
2.98838	78.2294
2.98666	78.2995
2.98494	78.196
2.98322	78.0989
2.9815	78.1528
2.97979	78.1294
2.97808	78.0626
2.97637	77.9776
2.97466	77.7727
2.97295	77.4944
2.97125	77.155
2.96955	76.7882
2.96785	76.42
2.96615	75.9688
2.96446	75.4493
2.96276	75.1557
2.96107	75.0495
2.95938	75.0315
2.95769	75.1777
2.95601	75.4749
2.95432	75.8104
2.95264	76.1472
2.95096	76.4864
2.94928	76.7912
2.9476	77.0424
2.94593	77.23
2.94425	77.3699
2.94258	77.5265
2.94092	77.6487
2.93925	77.7954
2.93758	77.9137
2.93592	78.0896
2.93426	78.1382
2.9326	78.054
2.93094	78.0869
2.92928	78.1441
2.92763	78.1751
2.92598	78.1681
2.92433	78.1196
2.92268	78.139
2.92103	78.0365
2.91939	77.9955
2.91775	78.11
2.9161	78.1898
2.91447	78.2018
2.91283	78.2586
2.91119	78.3771
2.90956	78.5832
2.90793	78.7001
2.9063	78.7376
2.90467	78.8129
2.90304	78.9946
2.90142	79.1765
2.89979	79.2386
2.89817	79.3453
2.89656	79.5131
2.89494	79.6175
2.89332	79.6294
2.89171	79.8064
2.8901	79.9843
2.88849	79.9766
2.88688	80.0084
2.88527	80.1204
2.88367	80.1513
2.88206	80.1814
2.88046	80.2403
2.87886	80.3308
2.87727	80.4643
2.87567	80.5431
2.87408	80.5535
2.87248	80.5921
2.87089	80.6247
2.8693	80.7413
2.86772	80.7826
2.86613	80.8343
2.86455	80.9329
2.86297	80.9509
2.86139	81.0111
2.85981	80.9519
2.85823	80.9815
2.85666	81.0715
2.85508	81.2412
2.85351	81.3925
2.85194	81.4368
2.85038	81.4315
2.84881	81.3445
2.84724	81.3991
2.84568	81.4094
2.84412	81.3727
2.84256	81.5525
2.841	81.6626
2.83945	81.6428
2.83789	81.7347
2.83634	81.7252
2.83479	81.6954
2.83324	81.7459
2.83169	81.8383
2.83015	81.7552
2.82861	81.7444
2.82706	81.8258
2.82552	81.8456
2.82398	81.76
2.82245	81.7836
2.82091	82.0315
2.81938	82.2364
2.81784	82.212
2.81631	82.0962
2.81479	82.0593
2.81326	82.0433
2.81173	82.0903
2.81021	82.0721
2.80869	82.085
2.80716	82.1825
2.80565	82.2402
2.80413	82.404
2.80261	82.4758
2.8011	82.2358
2.79959	82.1251
2.79808	82.2391
2.79657	82.2829
2.79506	82.3334
2.79355	82.36
2.79205	82.3501
2.79055	82.4924
2.78904	82.6738
2.78754	82.7549
2.78605	82.5494
2.78455	82.3475
2.78306	82.4479
2.78156	82.447
2.78007	82.3665
2.77858	82.5197
2.77709	82.7378
2.77561	82.7417
2.77412	82.7388
2.77264	82.8589
2.77116	83.1256
2.76968	83.1867
2.7682	83.3314
2.76672	83.3567
2.76524	83.2072
2.76377	83.2303
2.7623	83.2803
2.76083	83.0113
2.75936	82.8534
2.75789	83.208
2.75642	83.9523
2.75496	84.0676
2.7535	83.4819
2.75203	83.4191
2.75057	83.5781
2.74912	83.6106
2.74766	83.6019
2.7462	83.6544
2.74475	83.7065
2.7433	83.9858
2.74185	84.4572
2.7404	84.8103
2.73895	84.7024
2.7375	84.3334
2.73606	84.4984
2.73462	84.6447
2.73318	84.4124
2.73174	84.3961
2.7303	84.5663
2.72886	84.5807
2.72742	84.6621
2.72599	85.0687
2.72456	85.4695
2.72313	85.2383
2.7217	85.2848
2.72027	85.566
2.71884	85.2578
2.71742	85.1814
2.71599	85.1275
2.71457	85.1773
2.71315	85.3061
2.71173	85.7257
2.71032	85.7234
2.7089	85.2897
2.70748	85.104
2.70607	85.0474
2.70466	85.034
2.70325	85.1282
2.70184	85.3464
2.70043	85.3578
2.69903	85.288
2.69762	85.4054
2.69622	85.6943
2.69482	86.0171
2.69342	86.0567
2.69202	85.7687
2.69062	85.5927
2.68923	85.5966
2.68783	85.6282
2.68644	85.6799
2.68505	85.6782
2.68366	85.8448
2.68227	85.8788
2.68089	85.9205
2.6795	86.2243
2.67812	86.3447
2.67673	86.4413
2.67535	86.1456
2.67397	85.8766
2.6726	86.1031
2.67122	86.8504
2.66984	86.8484
2.66847	86.2984
2.6671	86.6984
2.66572	86.8555
2.66435	86.4645
2.66299	85.9948
2.66162	86.0612
2.66025	86.0814
2.65889	86.0234
2.65753	85.8762
2.65616	85.95
2.65481	85.9433
2.65345	86.0546
2.65209	86.1396
2.65073	85.9527
2.64938	85.8039
2.64803	85.8327
2.64667	86.0239
2.64532	86.1076
2.64397	85.8794
2.64263	85.8946
2.64128	85.901
2.63994	85.7733
2.63859	85.7855
2.63725	85.881
2.63591	85.9145
2.63457	86.0825
2.63323	86.1074
2.6319	86.1913
2.63056	86.4165
2.62923	86.1586
2.62789	86.2266
2.62656	86.4439
2.62523	85.9891
2.6239	85.743
2.62258	85.8595
2.62125	86.339
2.61993	86.4117
2.6186	86.1119
2.61728	86.4711
2.61596	86.34
2.61464	85.899
2.61332	85.9098
2.61201	85.8226
2.61069	85.8398
2.60938	86.052
2.60807	86.1721
2.60675	86.3828
2.60544	86.489
2.60414	86.2908
2.60283	86.1056
2.60152	86.0063
2.60022	85.8357
2.59891	85.7993
2.59761	85.9685
2.59631	86.516
2.59501	87.177
2.59371	86.7453
2.59242	86.0426
2.59112	85.8757
2.58983	85.9537
2.58853	86.1331
2.58724	86.3083
2.58595	86.2371
2.58466	86.4136
2.58338	86.3351
2.58209	85.993
2.5808	85.9405
2.57952	85.6825
2.57824	85.7813
2.57695	86.0475
2.57567	85.9631
2.5744	86.0776
2.57312	86.2599
2.57184	85.9296
2.57057	85.9563
2.56929	86.0818
2.56802	85.8327
2.56675	85.7725
2.56548	86.029
2.56421	86.2843
2.56294	86.2447
2.56168	86.1821
2.56041	85.9913
2.55915	85.825
2.55789	85.7981
2.55662	85.7591
2.55536	85.7186
2.5541	85.7097
2.55285	85.8462
2.55159	85.8658
2.55034	85.7361
2.54908	85.669
2.54783	85.7355
2.54658	85.7467
2.54533	85.6799
2.54408	85.7254
2.54283	85.7964
2.54159	85.7719
2.54034	85.7077
2.5391	85.7339
2.53785	85.7902
2.53661	85.8385
2.53537	85.7952
2.53413	85.7225
2.53289	85.7662
2.53166	85.783
2.53042	85.8246
2.52919	85.7259
2.52795	85.7502
2.52672	85.7583
2.52549	85.7064
2.52426	85.6814
2.52303	85.7057
2.52181	85.7808
2.52058	85.7944
2.51936	85.7906
2.51813	85.7576
2.51691	85.7689
2.51569	85.7759
2.51447	85.7182
2.51325	85.6291
2.51203	85.6709
2.51082	85.7256
2.5096	85.664
2.50839	85.64
2.50717	85.6611
2.50596	85.6579
2.50475	85.6769
2.50354	85.7205
2.50233	85.7355
2.50113	85.7623
2.49992	85.7566
2.49872	85.6529
2.49751	85.5955
2.49631	85.6957
2.49511	85.7417
2.49391	85.6876
2.49271	85.6345
2.49151	85.5901
2.49031	85.6002
2.48912	85.6018
2.48792	85.6402
2.48673	85.7133
2.48554	85.7086
2.48435	85.6376
2.48316	85.5767
2.48197	85.6811
2.48078	85.6848
2.4796	85.6335
2.47841	85.6263
2.47723	85.5545
2.47604	85.5216
2.47486	85.5906
2.47368	85.6306
2.4725	85.6123
2.47132	85.503
2.47014	85.5503
2.46897	85.7109
2.46779	85.7936
2.46662	85.781
2.46545	85.6706
2.46427	85.6535
2.4631	85.6935
2.46193	85.6365
2.46077	85.6285
2.4596	85.5868
2.45843	85.5139
2.45727	85.511
2.4561	85.5952
2.45494	85.7129
2.45378	85.748
2.45262	85.6565
2.45146	85.649
2.4503	85.6456
2.44914	85.6331
2.44799	85.5597
2.44683	85.6878
2.44568	85.7726
2.44452	85.6567
2.44337	85.6506
2.44222	85.646
2.44107	85.5703
2.43992	85.629
2.43877	85.5866
2.43763	85.6879
2.43648	85.6931
2.43534	85.6616
2.43419	85.6663
2.43305	85.6294
2.43191	85.5782
2.43077	85.644
2.42963	85.612
2.42849	85.5804
2.42736	85.6901
2.42622	85.7215
2.42509	85.6659
2.42395	85.606
2.42282	85.5716
2.42169	85.6157
2.42056	85.8308
2.41943	85.8745
2.4183	85.7922
2.41717	85.7327
2.41605	85.7069
2.41492	85.6869
2.4138	85.6446
2.41267	85.597
2.41155	85.5704
2.41043	85.6823
2.40931	85.7347
2.40819	85.8057
2.40707	85.7249
2.40595	85.6715
2.40484	85.6984
2.40372	85.6344
2.40261	85.5563
2.4015	85.6033
2.40039	85.6928
2.39928	85.566
2.39817	85.45
2.39706	85.5396
2.39595	85.5901
2.39484	85.5903
2.39374	85.5866
2.39263	85.6455
2.39153	85.7669
2.39043	85.7137
2.38932	85.7021
2.38822	85.6796
2.38712	85.6574
2.38603	85.6491
2.38493	85.5488
2.38383	85.4555
2.38274	85.5592
2.38164	85.7447
2.38055	85.7392
2.37946	85.6727
2.37836	85.6465
2.37727	85.6879
2.37618	85.7891
2.3751	85.7732
2.37401	85.7349
2.37292	85.6542
2.37184	85.6053
2.37075	85.6207
2.36967	85.6125
2.36859	85.6269
2.3675	85.7012
2.36642	85.6758
2.36534	85.5605
2.36427	85.4306
2.36319	85.488
2.36211	85.6001
2.36104	85.621
2.35996	85.6191
2.35889	85.6031
2.35781	85.6443
2.35674	85.6695
2.35567	85.7437
2.3546	85.7597
2.35353	85.6781
2.35247	85.7261
2.3514	85.7676
2.35033	85.6857
2.34927	85.6033
2.3482	85.5793
2.34714	85.5746
2.34608	85.5595
2.34502	85.6213
2.34396	85.6616
2.3429	85.5967
2.34184	85.5578
2.34078	85.5618
2.33973	85.6814
2.33867	85.663
2.33762	85.6673
2.33656	85.7587
2.33551	85.6283
2.33446	85.6201
2.33341	85.757
2.33236	85.6279
2.33131	85.5339
2.33026	85.6005
2.32922	85.6929
2.32817	85.7583
2.32712	85.8248
2.32608	85.7418
2.32504	85.6041
2.324	85.6227
2.32295	85.6449
2.32191	85.6892
2.32087	85.6104
2.31984	85.596
2.3188	85.5951
2.31776	85.5607
2.31673	85.6374
2.31569	85.7611
2.31466	85.6425
2.31362	85.6425
2.31259	85.6934
2.31156	85.576
2.31053	85.5639
2.3095	85.6022
2.30847	85.6239
2.30745	85.6638
2.30642	85.6575
2.3054	85.5652
2.30437	85.5586
2.30335	85.5395
2.30232	85.5758
2.3013	85.7062
2.30028	85.754
2.29926	85.7556
2.29824	85.6859
2.29722	85.5355
2.29621	85.3928
2.29519	85.3752
2.29417	85.488
2.29316	85.5103
2.29215	85.6185
2.29113	85.6137
2.29012	85.4833
2.28911	85.5413
2.2881	85.644
2.28709	85.7197
2.28608	85.746
2.28507	85.6283
2.28407	85.6665
2.28306	85.7285
2.28206	85.6652
2.28105	85.6266
2.28005	85.668
2.27905	85.6888
2.27805	85.5963
2.27705	85.5734
2.27605	85.439
2.27505	85.4941
2.27405	85.6147
2.27305	85.5777
2.27206	85.5275
2.27106	85.5507
2.27007	85.631
2.26907	85.625
2.26808	85.6566
2.26709	85.696
2.2661	85.5496
2.26511	85.3665
2.26412	85.2466
2.26313	85.4935
2.26214	85.7185
2.26116	85.7597
2.26017	85.6679
2.25919	85.5924
2.2582	85.6216
2.25722	85.5992
2.25624	85.5882
2.25526	85.6257
2.25428	85.652
2.2533	85.6077
2.25232	85.6311
2.25134	85.5948
2.25036	85.5288
2.24939	85.5063
2.24841	85.5477
2.24744	85.5752
2.24646	85.5999
2.24549	85.6402
2.24452	85.5634
2.24355	85.462
2.24257	85.3543
2.24161	85.4152
2.24064	85.5747
2.23967	85.7533
2.2387	85.7115
2.23774	85.511
2.23677	85.5062
2.23581	85.6078
2.23484	85.6149
2.23388	85.5128
2.23292	85.4169
2.23196	85.3551
2.231	85.4865
2.23004	85.5542
2.22908	85.4866
2.22812	85.4665
2.22716	85.5238
2.22621	85.5476
2.22525	85.5014
2.2243	85.6085
2.22334	85.6102
2.22239	85.5138
2.22144	85.5213
2.22049	85.549
2.21953	85.72
2.21859	85.7541
2.21764	85.6367
2.21669	85.4349
2.21574	85.4356
2.21479	85.4269
2.21385	85.2773
2.2129	85.3298
2.21196	85.4585
2.21102	85.4478
2.21007	85.4625
2.20913	85.5426
2.20819	85.5346
2.20725	85.5616
2.20631	85.4746
2.20537	85.2949
2.20444	85.3073
2.2035	85.4607
2.20256	85.5538
2.20163	85.6003
2.20069	85.596
2.19976	85.4934
2.19883	85.4872
2.19789	85.5268
2.19696	85.6759
2.19603	85.5803
2.1951	85.3951
2.19417	85.3658
2.19325	85.5066
2.19232	85.541
2.19139	85.5111
2.19047	85.4582
2.18954	85.4695
2.18862	85.6186
2.18769	85.6484
2.18677	85.579
2.18585	85.5817
2.18493	85.4498
2.18401	85.3641
2.18309	85.4149
2.18217	85.3367
2.18125	85.3866
2.18033	85.505
2.17942	85.5152
2.1785	85.5474
2.17759	85.4461
2.17667	85.3772
2.17576	85.3205
2.17485	85.2752
2.17393	85.3744
2.17302	85.4147
2.17211	85.4885
2.1712	85.587
2.17029	85.5942
2.16939	85.6112
2.16848	85.6474
2.16757	85.597
2.16667	85.5854
2.16576	85.4921
2.16486	85.5736
2.16395	85.6196
2.16305	85.5846
2.16215	85.5945
2.16125	85.393
2.16035	85.3134
2.15945	85.3279
2.15855	85.3552
2.15765	85.4918
2.15675	85.5542
2.15586	85.3526
2.15496	85.4341
2.15406	85.6655
2.15317	85.6624
2.15228	85.55
2.15138	85.388
2.15049	85.4034
2.1496	85.4757
2.14871	85.4208
2.14782	85.5651
2.14693	85.5451
2.14604	85.4136
2.14515	85.4292
2.14427	85.4707
2.14338	85.3751
2.14249	85.3718
2.14161	85.4963
2.14072	85.5081
2.13984	85.3666
2.13896	85.4316
2.13808	85.429
2.13719	85.5296
2.13631	85.5581
2.13543	85.5321
2.13455	85.5083
2.13368	85.5119
2.1328	85.4756
2.13192	85.4947
2.13105	85.5687
2.13017	85.5273
2.1293	85.5116
2.12842	85.5904
2.12755	85.5622
2.12668	85.4546
2.1258	85.3901
2.12493	85.3875
2.12406	85.4978
2.12319	85.4707
2.12232	85.3499
2.12145	85.4305
2.12059	85.5294
2.11972	85.4967
2.11885	85.406
2.11799	85.4348
2.11712	85.5609
2.11626	85.7132
2.1154	85.5969
2.11453	85.4178
2.11367	85.4352
2.11281	85.5285
2.11195	85.4886
2.11109	85.4163
2.11023	85.6062
2.10937	85.5055
2.10851	85.2589
2.10766	85.4892
2.1068	85.5092
2.10594	85.2054
2.10509	85.3301
2.10423	85.4165
2.10338	85.4268
2.10253	85.5522
2.10168	85.4449
2.10082	85.2342
2.09997	85.1137
2.09912	85.3143
2.09827	85.4707
2.09742	85.395
2.09658	85.4593
2.09573	85.5147
2.09488	85.4196
2.09404	85.4004
2.09319	85.2906
2.09235	85.3035
2.0915	85.4906
2.09066	85.4559
2.08982	85.2504
2.08897	85.3767
2.08813	85.5085
2.08729	85.3271
2.08645	85.2179
2.08561	85.1841
2.08477	85.3151
2.08394	85.3786
2.0831	85.4261
2.08226	85.5583
2.08143	85.3999
2.08059	85.0733
2.07976	85.2328
2.07892	85.6061
2.07809	85.6186
2.07726	85.2602
2.07643	85.3347
2.07559	85.7025
2.07476	85.5206
2.07393	85.4109
2.0731	85.3382
2.07228	85.1883
2.07145	85.3016
2.07062	85.2987
2.06979	85.2685
2.06897	85.2085
2.06814	85.4959
2.06732	85.6397
2.06649	85.4768
2.06567	85.3247
2.06485	85.0872
2.06403	85.1144
2.0632	85.2634
2.06238	85.3164
2.06156	85.1985
2.06074	85.319
2.05993	85.6143
2.05911	85.6746
2.05829	85.3098
2.05747	85.207
2.05666	85.3774
2.05584	85.4066
2.05503	85.4365
2.05421	85.4747
2.0534	85.5195
2.05259	85.4779
2.05177	85.3613
2.05096	85.243
2.05015	85.4378
2.04934	85.5245
2.04853	85.3658
2.04772	85.3591
2.04691	85.3241
2.04611	85.3685
2.0453	85.4819
2.04449	85.3394
2.04369	85.1094
2.04288	85.1864
2.04208	85.1886
2.04127	85.1097
2.04047	85.0826
2.03967	85.2385
2.03886	85.5118
2.03806	85.5511
2.03726	85.4011
2.03646	85.1683
2.03566	85.1453
2.03486	85.3899
2.03407	85.4872
2.03327	85.3938
2.03247	85.2376
2.03167	85.2278
2.03088	85.3939
2.03008	85.5306
2.02929	85.5353
2.0285	85.4601
2.0277	85.4675
2.02691	85.2199
2.02612	85.3169
2.02533	85.6633
2.02453	85.4484
2.02374	85.2289
2.02295	85.1407
2.02217	85.0312
2.02138	85.1075
2.02059	85.3176
2.0198	85.6324
2.01902	85.6282
2.01823	85.4155
2.01744	85.2826
2.01666	85.2859
2.01588	85.2461
2.01509	85.2706
2.01431	85.3392
2.01353	85.0881
2.01275	85.148
2.01196	85.3086
2.01118	85.1798
2.0104	85.1953
2.00963	85.4804
2.00885	85.2892
2.00807	85.2784
2.00729	85.4805
2.00651	85.3754
2.00574	85.2203
2.00496	85.2033
2.00419	85.3157
2.00341	85.3095
2.00264	85.3607
2.00187	85.4244
2.00109	85.2758
2.00032	85.0825
