Name: Garnetiferous Mica Schist
Type: Rock
Class: Metamorphic
Subclass:  Schist 
Particle Size: Solid surface
Sample No.: Ward84.txt
Owner: JPL
Wavelength range:  IR 
Origin: Ward's Collection of American Rocks.  Sample locality - Gassets, Windsor County, Vermont.  Collected by - JPL.
Collected by:  Ward's Natural Science
Description: The hand specimen is a porphyroblastic, schistose rock
composed of scaly, silvery mica, quartz and garnet with biotite and
some staurolite and occasional kyanite. Geologic age - Upper Cambrian(?)


Measurement: Hemispherical reflectance
First Column: X
Second Column: Y
X Units: Wavelength (micrometers)
Y Units: Reflectance (percent)
First X Value: 15.3871
Last X Value: 1.9998
Number of X Values: 2257
Additional information: None

15.3871   1.89988
15.3416   2.20654
15.2964   2.27384
15.2514   2.17565
15.2066   2.27746
15.1622   2.70041
15.1180   2.85739
15.0740   2.77692
15.0303   2.66009
14.9869   2.43355
14.9437   2.56470
14.9008   3.05356
14.8581   3.20927
14.8156   2.99469
14.7734   3.13068
14.7314   3.20705
14.6897   3.23976
14.6482   3.01988
14.6069   3.10138
14.5659   3.41719
14.5251   3.60795
14.4845   3.65049
14.4442   3.43811
14.4041   3.29084
14.3642   3.33374
14.3245   3.29516
14.2850   3.21943
14.2458   3.27363
14.2068   3.53452
14.1679   3.48694
14.1293   3.44545
14.0909   3.62210
14.0528   3.65809
14.0148   3.62594
13.9770   3.79528
13.9394   4.02885
13.9021   3.95475
13.8649   3.74161
13.8279   3.77782
13.7911   3.94268
13.7546   3.96637
13.7182   4.23989
13.6820   4.26992
13.6460   4.15569
13.6101   4.24987
13.5745   4.45976
13.5391   4.44733
13.5038   4.32656
13.4687   4.30073
13.4339   4.33969
13.3991   4.32860
13.3646   4.46728
13.3302   4.48829
13.2961   4.41760
13.2621   4.39075
13.2282   4.47869
13.1946   4.40797
13.1611   4.22696
13.1278   4.03673
13.0946   3.91591
13.0616   4.01507
13.0288   4.09068
12.9962   3.98186
12.9637   4.24506
12.9313   4.61116
12.8992   4.80214
12.8672   5.02303
12.8353   5.22574
12.8036   5.44515
12.7721   5.54660
12.7407   5.52311
12.7095   5.35272
12.6784   5.16159
12.6475   5.05499
12.6167   5.12291
12.5861   5.33206
12.5556   5.71373
12.5253   5.89780
12.4951   5.68190
12.4651   5.47731
12.4352   5.24814
12.4054   5.18898
12.3758   4.73124
12.3463   4.22128
12.3170   4.05469
12.2878   4.04590
12.2588   4.00384
12.2299   4.06065
12.2011   4.15895
12.1725   4.41405
12.1439   4.75361
12.1156   4.87944
12.0873   4.92953
12.0592   4.93731
12.0312   4.99523
12.0034   5.13343
11.9757   5.43114
11.9481   5.68782
11.9206   5.65727
11.8933   5.65050
11.8661   5.91661
11.8390   6.20895
11.8120   6.47603
11.7852   6.68640
11.7584   6.78710
11.7318   6.82889
11.7053   6.96411
11.6790   7.10223
11.6527   7.15025
11.6266   7.44473
11.6006   7.65372
11.5747   7.67665
11.5489   7.79224
11.5233   7.92169
11.4977   8.03246
11.4723   8.14379
11.4469   8.33605
11.4217   8.51441
11.3966   8.62739
11.3716   8.62745
11.3468   8.58367
11.3220   8.41711
11.2973   8.24645
11.2728   8.22835
11.2483   8.27716
11.2240   8.31083
11.1997   8.45426
11.1756   8.78729
11.1515   9.14223
11.1276   9.44866
11.1038   9.67308
11.0801   9.77845
11.0564   9.90481
11.0329   9.92791
11.0095   9.98585
10.9862   9.99232
10.9629   9.80393
10.9398   9.71482
10.9168   9.75087
10.8938   9.75974
10.8710   9.56019
10.8483   9.42329
10.8256   9.29501
10.8031   9.15894
10.7806   8.92678
10.7582   8.79046
10.7360   8.86690
10.7138   8.87703
10.6917   8.81218
10.6697   8.89829
10.6478   9.05000
10.6260   9.14419
10.6042   9.28401
10.5826   9.48091
10.5610   9.62792
10.5396  10.03790
10.5182  10.56790
10.4969  10.97440
10.4757  11.33170
10.4546  11.79440
10.4335  12.38820
10.4126  12.91790
10.3917  13.39040
10.3709  13.77850
10.3502  14.16600
10.3296  14.56890
10.3091  14.89820
10.2886  15.15170
10.2683  15.48160
10.2480  15.85720
10.2277  16.04100
10.2076  16.34960
10.1876  16.67540
10.1676  16.92360
10.1477  17.10180
10.1279  17.32260
10.1081  17.80270
10.0885  18.18280
10.0689  18.37710
10.0494  18.47100
10.0299  18.60280
10.0106  18.87780
 9.9913  19.26630
 9.9720  19.56410
 9.9529  19.85260
 9.9338  20.14010
 9.9148  20.25350
 9.8959  20.46630
 9.8771  20.68510
 9.8583  20.84610
 9.8396  21.08040
 9.8210  21.29910
 9.8024  21.58910
 9.7839  21.98220
 9.7655  22.22720
 9.7471  22.36840
 9.7288  22.62140
 9.7106  22.87350
 9.6925  23.25660
 9.6744  23.53630
 9.6564  23.67080
 9.6384  23.75060
 9.6205  23.77690
 9.6027  23.69140
 9.5850  23.44280
 9.5673  23.01690
 9.5497  22.68880
 9.5321  22.35400
 9.5146  22.02310
 9.4972  21.91510
 9.4798  21.80190
 9.4625  21.53350
 9.4453  21.59030
 9.4281  22.00090
 9.4110  22.40930
 9.3940  22.87800
 9.3770  23.43790
 9.3600  23.85010
 9.3432  24.12980
 9.3264  24.37640
 9.3096  24.57780
 9.2930  24.88170
 9.2763  25.44540
 9.2598  25.69780
 9.2432  25.59650
 9.2268  25.48370
 9.2104  25.49050
 9.1941  25.50890
 9.1778  25.46650
 9.1616  25.53930
 9.1454  25.55560
 9.1293  25.46620
 9.1133  25.30650
 9.0973  25.17740
 9.0814  25.04560
 9.0655  24.71510
 9.0497  24.45750
 9.0339  24.23780
 9.0182  24.13800
 9.0025  23.86350
 8.9870  23.60530
 8.9714  23.32760
 8.9559  22.83940
 8.9405  22.31250
 8.9251  21.98490
 8.9097  21.61240
 8.8945  21.14510
 8.8792  20.57700
 8.8641  20.03160
 8.8489  19.56920
 8.8338  19.03440
 8.8188  18.56410
 8.8039  18.06950
 8.7889  17.39200
 8.7741  16.77100
 8.7592  15.95410
 8.7445  15.10780
 8.7297  14.34500
 8.7151  13.63470
 8.7005  12.94060
 8.6859  12.13310
 8.6714  11.28080
 8.6569  10.24920
 8.6425   9.21405
 8.6281   8.68693
 8.6137   8.80415
 8.5994   9.09070
 8.5852   9.51428
 8.5710   9.79725
 8.5569   9.78365
 8.5428   9.81204
 8.5287   9.86277
 8.5147   9.77375
 8.5008   9.52282
 8.4869   9.42056
 8.4730   9.27287
 8.4592   9.11283
 8.4454   9.02539
 8.4316   9.04406
 8.4180   9.12983
 8.4043   9.02904
 8.3907   8.81733
 8.3772   8.81818
 8.3637   8.78871
 8.3502   8.76637
 8.3368   8.66422
 8.3234   8.52444
 8.3100   8.45047
 8.2967   8.58500
 8.2835   8.60595
 8.2703   8.34084
 8.2571   8.25876
 8.2440   8.38674
 8.2309   8.38807
 8.2179   8.28452
 8.2049   8.17644
 8.1919   8.12881
 8.1790   8.00079
 8.1661   7.65744
 8.1532   7.35548
 8.1404   7.05381
 8.1277   6.70635
 8.1150   6.37060
 8.1023   6.03179
 8.0897   5.64677
 8.0770   5.37667
 8.0645   5.06335
 8.0520   4.71965
 8.0395   4.48011
 8.0270   4.24769
 8.0146   4.07716
 8.0023   3.90013
 7.9899   3.53324
 7.9776   3.30665
 7.9654   3.19141
 7.9532   2.97284
 7.9410   2.85336
 7.9288   2.77411
 7.9167   2.66301
 7.9047   2.58480
 7.8926   2.42055
 7.8807   2.36578
 7.8687   2.31370
 7.8568   2.24429
 7.8449   2.18431
 7.8330   2.10733
 7.8212   2.07534
 7.8094   2.06093
 7.7977   1.92382
 7.7860   1.92015
 7.7743   2.04975
 7.7627   2.05936
 7.7511   1.96599
 7.7395   1.94101
 7.7280   1.91178
 7.7165   1.91024
 7.7050   1.96022
 7.6936   2.01057
 7.6822   1.94053
 7.6708   1.86282
 7.6595   1.84516
 7.6482   1.96275
 7.6369   1.99941
 7.6257   1.96800
 7.6145   2.09192
 7.6033   2.08759
 7.5922   2.04846
 7.5811   2.05322
 7.5700   2.20392
 7.5590   2.21445
 7.5480   2.15852
 7.5370   2.08826
 7.5261   2.09251
 7.5152   2.10467
 7.5043   2.08715
 7.4935   2.06769
 7.4826   2.11027
 7.4718   2.23441
 7.4611   2.29439
 7.4504   2.33320
 7.4397   2.32595
 7.4290   2.30902
 7.4184   2.33300
 7.4078   2.45524
 7.3972   2.43730
 7.3867   2.33808
 7.3762   2.43705
 7.3657   2.48386
 7.3553   2.48106
 7.3449   2.54780
 7.3345   2.57600
 7.3241   2.53717
 7.3138   2.52694
 7.3035   2.57833
 7.2932   2.63546
 7.2830   2.66102
 7.2727   2.67571
 7.2626   2.78083
 7.2524   2.84558
 7.2423   2.84256
 7.2322   2.92150
 7.2221   2.98714
 7.2120   2.94569
 7.2020   2.87860
 7.1921   2.89100
 7.1821   2.87365
 7.1722   2.93882
 7.1623   3.08806
 7.1524   3.10067
 7.1425   3.03264
 7.1327   3.01188
 7.1229   3.07349
 7.1131   3.14875
 7.1034   3.14028
 7.0937   3.15383
 7.0840   3.25744
 7.0743   3.30610
 7.0647   3.31729
 7.0551   3.33776
 7.0455   3.29094
 7.0359   3.32672
 7.0264   3.43456
 7.0169   3.37510
 7.0074   3.25753
 6.9979   3.30716
 6.9885   3.43992
 6.9791   3.46623
 6.9697   3.52909
 6.9604   3.64565
 6.9510   3.60302
 6.9417   3.58606
 6.9324   3.67680
 6.9232   3.77461
 6.9140   3.86507
 6.9047   3.90830
 6.8956   3.86583
 6.8864   3.78750
 6.8773   3.81504
 6.8682   3.88220
 6.8591   3.95524
 6.8500   3.93823
 6.8410   3.93457
 6.8320   3.95474
 6.8230   4.00378
 6.8140   4.02399
 6.8051   4.04553
 6.7962   4.16460
 6.7873   4.27638
 6.7784   4.34286
 6.7695   4.38178
 6.7607   4.32607
 6.7519   4.29871
 6.7431   4.27833
 6.7344   4.31598
 6.7256   4.47585
 6.7169   4.55009
 6.7082   4.50777
 6.6996   4.52364
 6.6909   4.61105
 6.6823   4.70047
 6.6737   4.69061
 6.6651   4.70514
 6.6566   4.69116
 6.6480   4.71301
 6.6395   4.72760
 6.6310   4.73236
 6.6226   4.72790
 6.6141   4.76287
 6.6057   4.84520
 6.5973   4.91113
 6.5889   4.89059
 6.5805   4.88994
 6.5722   4.93776
 6.5639   4.97705
 6.5556   5.03215
 6.5473   5.14948
 6.5390   5.25397
 6.5308   5.21009
 6.5226   5.18504
 6.5144   5.11491
 6.5062   5.07281
 6.4981   5.21180
 6.4900   5.33210
 6.4818   5.36702
 6.4737   5.43210
 6.4657   5.41985
 6.4576   5.33331
 6.4496   5.31387
 6.4416   5.39313
 6.4336   5.44415
 6.4256   5.56259
 6.4177   5.69664
 6.4097   5.62724
 6.4018   5.46318
 6.3939   5.39400
 6.3860   5.38361
 6.3782   5.47345
 6.3704   5.48148
 6.3625   5.46315
 6.3547   5.54417
 6.3470   5.60328
 6.3392   5.51123
 6.3315   5.53770
 6.3237   5.62549
 6.3160   5.60607
 6.3083   5.52742
 6.3007   5.53911
 6.2930   5.59991
 6.2854   5.63752
 6.2778   5.67474
 6.2702   5.58934
 6.2626   5.55031
 6.2551   5.51092
 6.2476   5.49079
 6.2400   5.55754
 6.2325   5.52880
 6.2251   5.45638
 6.2176   5.38746
 6.2101   5.38283
 6.2027   5.32013
 6.1953   5.31691
 6.1879   5.40975
 6.1805   5.40224
 6.1732   5.35155
 6.1658   5.31975
 6.1585   5.26913
 6.1512   5.21590
 6.1439   5.26404
 6.1367   5.35221
 6.1294   5.34011
 6.1222   5.33306
 6.1149   5.38054
 6.1077   5.36374
 6.1006   5.30930
 6.0934   5.28670
 6.0862   5.36521
 6.0791   5.34088
 6.0720   5.30605
 6.0649   5.34672
 6.0578   5.31335
 6.0507   5.29903
 6.0437   5.28022
 6.0366   5.21426
 6.0296   5.19694
 6.0226   5.20702
 6.0156   5.16954
 6.0087   5.09541
 6.0017   5.08810
 5.9948   5.12164
 5.9878   5.09667
 5.9809   4.95080
 5.9740   4.97707
 5.9672   5.07723
 5.9603   5.08278
 5.9535   5.10520
 5.9466   5.08778
 5.9398   5.14283
 5.9330   5.08506
 5.9262   5.03255
 5.9195   5.03051
 5.9127   5.02362
 5.9060   5.06857
 5.8993   5.11799
 5.8926   5.10597
 5.8859   5.11486
 5.8792   5.06798
 5.8726   5.10632
 5.8659   5.21376
 5.8593   5.21536
 5.8527   5.19984
 5.8461   5.21716
 5.8395   5.26790
 5.8329   5.33376
 5.8264   5.33002
 5.8198   5.30387
 5.8133   5.25856
 5.8068   5.18751
 5.8003   5.22859
 5.7938   5.26865
 5.7874   5.28154
 5.7809   5.31438
 5.7745   5.36669
 5.7680   5.52298
 5.7616   5.50218
 5.7552   5.39280
 5.7489   5.42972
 5.7425   5.50535
 5.7361   5.54913
 5.7298   5.58742
 5.7235   5.58184
 5.7172   5.54229
 5.7109   5.53084
 5.7046   5.59117
 5.6983   5.65699
 5.6921   5.59636
 5.6858   5.50490
 5.6796   5.42007
 5.6734   5.39788
 5.6672   5.42628
 5.6610   5.48387
 5.6548   5.52376
 5.6487   5.53299
 5.6425   5.58237
 5.6364   5.56732
 5.6303   5.50994
 5.6242   5.43193
 5.6181   5.40382
 5.6120   5.45691
 5.6059   5.51841
 5.5999   5.51111
 5.5938   5.43405
 5.5878   5.42926
 5.5818   5.44192
 5.5758   5.48351
 5.5698   5.44695
 5.5638   5.47438
 5.5578   5.52411
 5.5519   5.52000
 5.5460   5.50045
 5.5400   5.52400
 5.5341   5.59634
 5.5282   5.59072
 5.5223   5.56540
 5.5164   5.58405
 5.5106   5.61615
 5.5047   5.65620
 5.4989   5.64492
 5.4931   5.64354
 5.4873   5.67628
 5.4815   5.69190
 5.4757   5.74756
 5.4699   5.82128
 5.4641   5.88087
 5.4584   5.82491
 5.4527   5.93114
 5.4469   6.02091
 5.4412   5.90985
 5.4355   5.90359
 5.4298   5.95503
 5.4241   5.98403
 5.4185   6.00341
 5.4128   5.98136
 5.4072   5.98225
 5.4015   5.98105
 5.3959   6.07685
 5.3903   6.17662
 5.3847   6.13652
 5.3791   6.09022
 5.3735   6.03095
 5.3680   6.07162
 5.3624   6.14247
 5.3569   6.14725
 5.3514   6.12762
 5.3458   6.18049
 5.3403   6.35089
 5.3348   6.44978
 5.3294   6.39688
 5.3239   6.43464
 5.3184   6.47549
 5.3130   6.44580
 5.3075   6.53497
 5.3021   6.64092
 5.2967   6.68821
 5.2913   6.76427
 5.2859   6.80684
 5.2805   6.91004
 5.2751   6.96674
 5.2698   7.00113
 5.2644   7.09392
 5.2591   7.19212
 5.2538   7.25290
 5.2485   7.32290
 5.2431   7.46650
 5.2378   7.53111
 5.2326   7.52499
 5.2273   7.60525
 5.2220   7.69122
 5.2168   7.78069
 5.2115   7.89195
 5.2063   7.99148
 5.2011   8.10718
 5.1959   8.10082
 5.1907   8.17204
 5.1855   8.19734
 5.1803   8.22791
 5.1751   8.35587
 5.1700   8.43332
 5.1648   8.47597
 5.1597   8.56715
 5.1545   8.64239
 5.1494   8.77496
 5.1443   8.76932
 5.1392   8.81696
 5.1341   8.89531
 5.1291   8.86505
 5.1240   8.83762
 5.1189   8.96521
 5.1139   9.06909
 5.1088   9.14481
 5.1038   9.16691
 5.0988   9.17237
 5.0938   9.16795
 5.0888   9.16060
 5.0838   9.27384
 5.0788   9.35740
 5.0738   9.42658
 5.0689   9.38249
 5.0639   9.28309
 5.0590   9.21941
 5.0541   9.29568
 5.0491   9.38980
 5.0442   9.35453
 5.0393   9.30485
 5.0344   9.30900
 5.0296   9.41829
 5.0247   9.46421
 5.0198   9.48882
 5.0150   9.48806
 5.0101   9.47404
 5.0053   9.49513
 5.0004   9.50937
 4.9956   9.48552
 4.9908   9.43292
 4.9860   9.46063
 4.9812   9.51760
 4.9765   9.56276
 4.9717   9.57115
 4.9669   9.54459
 4.9622   9.54401
 4.9574   9.55055
 4.9527   9.55029
 4.9480   9.61630
 4.9432   9.71197
 4.9385   9.70316
 4.9338   9.70490
 4.9291   9.70100
 4.9245   9.75963
 4.9198   9.89146
 4.9151   9.96428
 4.9105   9.92353
 4.9058   9.98648
 4.9012  10.09080
 4.8966  10.17920
 4.8919  10.26050
 4.8873  10.31630
 4.8827  10.37700
 4.8781  10.46210
 4.8736  10.59960
 4.8690  10.77600
 4.8644  10.90380
 4.8599  10.94950
 4.8553  10.94300
 4.8508  11.00590
 4.8462  11.08090
 4.8417  11.17770
 4.8372  11.29100
 4.8327  11.34760
 4.8282  11.39400
 4.8237  11.47650
 4.8192  11.55270
 4.8147  11.57630
 4.8103  11.62190
 4.8058  11.71060
 4.8014  11.74480
 4.7969  11.79050
 4.7925  11.92660
 4.7881  12.03330
 4.7836  12.04880
 4.7792  12.19250
 4.7748  12.37490
 4.7704  12.33750
 4.7660  12.34320
 4.7617  12.47590
 4.7573  12.59350
 4.7530  12.68190
 4.7486  12.71820
 4.7443  12.77990
 4.7399  12.90010
 4.7356  12.92630
 4.7313  12.96430
 4.7270  13.07180
 4.7226  13.09500
 4.7184  13.13490
 4.7141  13.26600
 4.7098  13.33720
 4.7055  13.32580
 4.7012  13.34410
 4.6970  13.33910
 4.6927  13.31980
 4.6885  13.39570
 4.6842  13.49520
 4.6800  13.50360
 4.6758  13.53850
 4.6716  13.58160
 4.6674  13.68130
 4.6632  13.82830
 4.6590  14.03640
 4.6548  14.19420
 4.6506  14.38910
 4.6465  14.59810
 4.6423  14.72420
 4.6382  14.85240
 4.6340  15.01660
 4.6299  15.13780
 4.6258  15.23950
 4.6216  15.32410
 4.6175  15.43040
 4.6134  15.55040
 4.6093  15.70030
 4.6052  15.84450
 4.6011  15.90570
 4.5971  15.96900
 4.5930  16.14210
 4.5889  16.32450
 4.5849  16.41690
 4.5808  16.41420
 4.5768  16.45160
 4.5727  16.57150
 4.5687  16.64450
 4.5647  16.62900
 4.5607  16.67970
 4.5567  16.76610
 4.5526  16.87190
 4.5487  16.89510
 4.5447  16.87610
 4.5407  16.89840
 4.5367  16.91980
 4.5328  16.99790
 4.5288  17.04820
 4.5248  17.05400
 4.5209  16.95050
 4.5170  16.97490
 4.5130  17.06740
 4.5091  17.02340
 4.5052  17.02970
 4.5013  17.07600
 4.4974  16.97580
 4.4935  16.93080
 4.4896  17.05600
 4.4857  17.02940
 4.4818  17.02650
 4.4779  17.06550
 4.4741  17.12770
 4.4702  17.31140
 4.4664  17.43040
 4.4625  17.50160
 4.4587  17.72450
 4.4549  17.91040
 4.4510  18.07140
 4.4472  18.29680
 4.4434  18.32580
 4.4396  18.34750
 4.4358  18.45120
 4.4320  18.57940
 4.4282  18.70000
 4.4245  18.79280
 4.4207  19.00280
 4.4169  19.16140
 4.4132  19.18990
 4.4094  19.32550
 4.4057  19.51040
 4.4019  19.63790
 4.3982  19.74940
 4.3945  19.96270
 4.3907  20.21960
 4.3870  20.30020
 4.3833  20.33220
 4.3796  20.47260
 4.3759  20.58310
 4.3722  20.63140
 4.3685  20.72430
 4.3649  20.86610
 4.3612  20.98200
 4.3575  21.12510
 4.3539  21.23890
 4.3502  21.29990
 4.3466  21.42520
 4.3429  21.51930
 4.3393  21.51570
 4.3357  21.58880
 4.3320  21.67450
 4.3284  21.77260
 4.3248  21.80810
 4.3212  21.72500
 4.3176  21.69810
 4.3140  21.68680
 4.3105  21.68370
 4.3069  21.73090
 4.3033  21.69220
 4.2997  21.70030
 4.2962  21.66800
 4.2926  21.58240
 4.2890  21.66950
 4.2855  21.68820
 4.2820  21.69660
 4.2784  21.77710
 4.2749  21.78670
 4.2714  21.85750
 4.2679  22.03550
 4.2644  22.20300
 4.2609  22.23440
 4.2574  22.24380
 4.2539  22.36480
 4.2504  22.40580
 4.2469  22.24900
 4.2434  22.17850
 4.2400  22.28040
 4.2365  22.31740
 4.2330  22.41320
 4.2296  22.40610
 4.2261  22.36930
 4.2227  22.44510
 4.2193  22.43180
 4.2158  22.49210
 4.2124  22.57160
 4.2090  22.63720
 4.2056  22.65980
 4.2022  22.75900
 4.1988  22.78700
 4.1954  22.86340
 4.1920  22.98950
 4.1886  22.95540
 4.1852  22.87890
 4.1818  22.85870
 4.1785  22.85900
 4.1751  22.95100
 4.1717  23.14630
 4.1684  23.27100
 4.1650  23.35130
 4.1617  23.32800
 4.1584  23.28330
 4.1550  23.32410
 4.1517  23.34280
 4.1484  23.41460
 4.1451  23.46780
 4.1418  23.49580
 4.1384  23.53360
 4.1351  23.61600
 4.1319  23.66280
 4.1286  23.74670
 4.1253  23.82250
 4.1220  23.89350
 4.1187  23.96080
 4.1155  23.98350
 4.1122  24.10850
 4.1089  24.01560
 4.1057  23.88540
 4.1024  23.94290
 4.0992  24.05990
 4.0959  24.08680
 4.0927  24.14940
 4.0895  24.33290
 4.0863  24.37570
 4.0830  24.44210
 4.0798  24.56840
 4.0766  24.69470
 4.0734  24.65160
 4.0702  24.50930
 4.0670  24.53300
 4.0639  24.49860
 4.0607  24.57230
 4.0575  24.68570
 4.0543  24.59640
 4.0511  24.58620
 4.0480  24.67000
 4.0448  24.71250
 4.0417  24.72920
 4.0385  24.66710
 4.0354  24.65820
 4.0323  24.70060
 4.0291  24.61160
 4.0260  24.60920
 4.0229  24.69200
 4.0197  24.79240
 4.0166  24.83270
 4.0135  24.71830
 4.0104  24.74150
 4.0073  24.76870
 4.0042  24.70690
 4.0011  24.80420
 3.9981  24.90260
 3.9950  24.76200
 3.9919  24.83320
 3.9888  25.04830
 3.9857  25.06970
 3.9827  25.04060
 3.9796  25.21360
 3.9766  25.24720
 3.9735  25.16300
 3.9705  25.10070
 3.9675  24.98370
 3.9644  25.01930
 3.9614  25.32280
 3.9584  25.40880
 3.9554  25.36020
 3.9523  25.35860
 3.9493  25.41560
 3.9463  25.47210
 3.9433  25.50590
 3.9403  25.66170
 3.9373  25.71400
 3.9343  25.73600
 3.9314  25.76180
 3.9284  25.77330
 3.9254  25.83150
 3.9224  25.88330
 3.9195  25.95600
 3.9165  25.97660
 3.9136  25.90580
 3.9106  25.79840
 3.9077  25.86790
 3.9047  25.90320
 3.9018  25.83780
 3.8988  25.82580
 3.8959  25.88490
 3.8930  25.93760
 3.8901  25.98250
 3.8872  25.88990
 3.8842  25.89320
 3.8813  26.03850
 3.8784  26.01120
 3.8755  25.94200
 3.8726  25.91940
 3.8697  25.95260
 3.8669  25.91560
 3.8640  25.91240
 3.8611  25.92300
 3.8582  25.83210
 3.8554  25.86110
 3.8525  25.83740
 3.8496  25.86590
 3.8468  26.01110
 3.8439  26.02130
 3.8411  25.96760
 3.8382  25.93620
 3.8354  26.06370
 3.8326  26.17540
 3.8297  26.16990
 3.8269  26.24640
 3.8241  26.27920
 3.8213  26.24320
 3.8185  26.20560
 3.8157  26.10350
 3.8128  26.11970
 3.8100  26.30790
 3.8072  26.33230
 3.8045  26.26660
 3.8017  26.36810
 3.7989  26.30050
 3.7961  26.19700
 3.7933  26.20830
 3.7906  26.34650
 3.7878  26.35900
 3.7850  26.27310
 3.7822  26.13160
 3.7795  26.11900
 3.7767  26.01620
 3.7740  25.82690
 3.7713  25.85290
 3.7685  25.84600
 3.7658  25.69900
 3.7630  25.63750
 3.7603  25.67810
 3.7576  25.64040
 3.7549  25.42840
 3.7521  25.15340
 3.7494  25.08480
 3.7467  25.02870
 3.7440  24.85970
 3.7413  24.69160
 3.7386  24.65390
 3.7359  24.58350
 3.7332  24.50660
 3.7306  24.41390
 3.7279  24.42090
 3.7252  24.47330
 3.7225  24.64150
 3.7199  24.71140
 3.7172  24.57510
 3.7145  24.49220
 3.7119  24.43210
 3.7092  24.42620
 3.7066  24.44000
 3.7039  24.56980
 3.7013  24.67010
 3.6986  24.84180
 3.6960  24.84950
 3.6934  24.84590
 3.6907  24.91220
 3.6881  25.03260
 3.6855  25.19620
 3.6829  25.25920
 3.6803  25.30810
 3.6776  25.28110
 3.6750  25.36300
 3.6724  25.35870
 3.6698  25.19230
 3.6672  25.21770
 3.6646  25.26670
 3.6620  25.33230
 3.6595  25.38410
 3.6569  25.56120
 3.6543  25.73030
 3.6517  25.77000
 3.6492  25.76900
 3.6466  25.71620
 3.6440  25.83980
 3.6415  26.03300
 3.6389  26.18820
 3.6364  26.21790
 3.6338  26.17850
 3.6313  26.29870
 3.6287  26.45770
 3.6262  26.51350
 3.6237  26.54930
 3.6211  26.65400
 3.6186  26.68200
 3.6161  26.54000
 3.6136  26.60280
 3.6111  26.84940
 3.6085  27.05920
 3.6060  27.04290
 3.6035  26.95960
 3.6010  27.02300
 3.5985  26.97120
 3.5960  26.75700
 3.5935  26.66770
 3.5910  26.82440
 3.5886  27.03110
 3.5861  26.98750
 3.5836  26.85240
 3.5811  26.88350
 3.5787  27.03530
 3.5762  26.97690
 3.5737  26.96580
 3.5713  27.21460
 3.5688  27.20980
 3.5663  27.15410
 3.5639  27.15000
 3.5614  27.13860
 3.5590  27.07170
 3.5566  27.02860
 3.5541  26.96630
 3.5517  27.02050
 3.5493  27.07740
 3.5468  27.17560
 3.5444  27.17330
 3.5420  27.16470
 3.5396  27.15740
 3.5372  27.20120
 3.5347  27.17690
 3.5323  27.14180
 3.5299  27.12280
 3.5275  27.15570
 3.5251  27.17950
 3.5227  27.16020
 3.5203  27.33100
 3.5180  27.37380
 3.5156  26.99800
 3.5132  26.82850
 3.5108  26.88620
 3.5084  27.09390
 3.5061  27.11620
 3.5037  26.96070
 3.5013  26.85410
 3.4990  26.84640
 3.4966  26.87940
 3.4943  26.92010
 3.4919  27.05820
 3.4895  27.26960
 3.4872  27.35570
 3.4849  27.31650
 3.4825  27.29290
 3.4802  27.21550
 3.4778  27.24880
 3.4755  27.24590
 3.4732  27.16980
 3.4709  27.11090
 3.4685  27.12180
 3.4662  27.15880
 3.4639  27.18050
 3.4616  27.21870
 3.4593  27.21990
 3.4570  27.05100
 3.4547  26.98030
 3.4524  26.97870
 3.4501  27.06200
 3.4478  27.20050
 3.4455  27.08680
 3.4432  27.18220
 3.4409  27.21830
 3.4386  26.98730
 3.4364  26.88400
 3.4341  26.92920
 3.4318  26.90850
 3.4295  26.68300
 3.4273  26.54260
 3.4250  26.43550
 3.4228  26.24900
 3.4205  26.23940
 3.4182  26.24130
 3.4160  26.25980
 3.4137  26.27510
 3.4115  26.36700
 3.4093  26.27900
 3.4070  26.22840
 3.4048  26.22120
 3.4025  26.26430
 3.4003  26.19710
 3.3981  25.97240
 3.3958  25.95420
 3.3936  26.25740
 3.3914  26.35710
 3.3892  26.18650
 3.3870  25.98420
 3.3848  25.97880
 3.3826  25.93360
 3.3804  25.77010
 3.3782  25.77640
 3.3760  25.88980
 3.3738  26.00860
 3.3716  25.93220
 3.3694  25.76680
 3.3672  25.66860
 3.3650  25.78620
 3.3628  25.81490
 3.3606  25.48280
 3.3585  25.45930
 3.3563  25.70760
 3.3541  25.64170
 3.3520  25.55670
 3.3498  25.63730
 3.3476  25.57460
 3.3455  25.18320
 3.3433  25.07940
 3.3411  25.20740
 3.3390  25.39230
 3.3369  25.45160
 3.3347  25.45010
 3.3326  25.46140
 3.3304  25.38340
 3.3283  25.30010
 3.3262  25.24630
 3.3240  25.24220
 3.3219  25.15130
 3.3198  25.05170
 3.3176  25.04070
 3.3155  25.28330
 3.3134  25.13960
 3.3113  24.96510
 3.3092  25.14920
 3.3071  25.07550
 3.3049  25.14170
 3.3028  25.21130
 3.3007  25.08560
 3.2986  25.08160
 3.2965  25.08520
 3.2944  25.08090
 3.2924  25.17130
 3.2903  25.11650
 3.2882  25.00280
 3.2861  24.91230
 3.2840  24.74280
 3.2819  24.73820
 3.2799  24.61970
 3.2778  24.59480
 3.2757  24.55140
 3.2736  24.57700
 3.2716  24.60690
 3.2695  24.48600
 3.2675  24.42160
 3.2654  24.38510
 3.2634  24.30120
 3.2613  24.43300
 3.2593  24.62870
 3.2572  24.66550
 3.2552  24.55620
 3.2531  24.31420
 3.2511  24.13940
 3.2490  24.22540
 3.2470  24.35450
 3.2450  24.47590
 3.2429  24.36250
 3.2409  24.11240
 3.2389  24.04310
 3.2369  24.04740
 3.2348  24.04480
 3.2328  23.91600
 3.2308  23.88810
 3.2288  24.06400
 3.2268  23.99760
 3.2248  23.69520
 3.2228  23.51210
 3.2208  23.42110
 3.2188  23.51830
 3.2168  23.69220
 3.2148  23.60590
 3.2128  23.43750
 3.2108  23.44800
 3.2088  23.38230
 3.2068  23.59720
 3.2049  23.59110
 3.2029  23.34130
 3.2009  23.10800
 3.1989  23.03520
 3.1970  22.92090
 3.1950  22.97720
 3.1930  22.95580
 3.1911  22.86580
 3.1891  22.75070
 3.1871  22.68990
 3.1852  22.91070
 3.1832  22.98990
 3.1813  22.72980
 3.1793  22.73630
 3.1774  22.82130
 3.1754  22.74610
 3.1735  22.60050
 3.1715  22.37690
 3.1696  22.09980
 3.1677  22.17780
 3.1657  22.48950
 3.1638  22.39610
 3.1619  22.08800
 3.1599  22.03310
 3.1580  22.08870
 3.1561  22.32990
 3.1542  22.26410
 3.1523  22.22370
 3.1503  22.08350
 3.1484  21.79560
 3.1465  21.77950
 3.1446  21.47660
 3.1427  21.47630
 3.1408  21.60430
 3.1389  21.44010
 3.1370  21.62940
 3.1351  21.75270
 3.1332  21.35300
 3.1313  21.29340
 3.1294  21.08760
 3.1275  21.02050
 3.1257  21.20570
 3.1238  21.33740
 3.1219  21.21550
 3.1200  21.16620
 3.1181  21.11570
 3.1163  20.78980
 3.1144  20.74340
 3.1125  20.62640
 3.1107  20.51760
 3.1088  20.71550
 3.1069  21.06650
 3.1051  21.09110
 3.1032  20.83560
 3.1014  20.86180
 3.0995  20.76830
 3.0976  20.88460
 3.0958  21.00220
 3.0940  20.69220
 3.0921  20.53730
 3.0903  20.38230
 3.0884  20.16220
 3.0866  20.06290
 3.0848  20.36060
 3.0829  20.49970
 3.0811  20.58800
 3.0793  20.41630
 3.0774  20.14330
 3.0756  20.20310
 3.0738  20.27950
 3.0720  20.11080
 3.0701  20.09120
 3.0683  20.12310
 3.0665  20.18990
 3.0647  20.18920
 3.0629  20.15720
 3.0611  20.12560
 3.0593  20.07810
 3.0575  19.78810
 3.0557  19.74100
 3.0539  19.86550
 3.0521  20.00630
 3.0503  20.04730
 3.0485  19.95200
 3.0467  19.79100
 3.0449  19.81840
 3.0431  19.90340
 3.0413  19.39010
 3.0396  18.94970
 3.0378  19.13260
 3.0360  19.01600
 3.0342  19.01940
 3.0324  19.36430
 3.0307  19.49610
 3.0289  19.64780
 3.0271  19.69220
 3.0254  19.44000
 3.0236  19.07610
 3.0218  18.93650
 3.0201  19.13850
 3.0183  19.28470
 3.0166  19.23350
 3.0148  19.32730
 3.0130  19.30850
 3.0113  18.95380
 3.0096  19.13800
 3.0078  19.69420
 3.0061  19.59160
 3.0043  19.36260
 3.0026  19.39670
 3.0008  19.51790
 2.9991  19.22890
 2.9974  18.79320
 2.9956  19.06180
 2.9939  19.24480
 2.9922  19.10320
 2.9905  19.13800
 2.9887  19.10060
 2.9870  19.10110
 2.9853  19.17110
 2.9836  19.11780
 2.9819  19.03150
 2.9802  18.71190
 2.9784  18.75600
 2.9767  18.93800
 2.9750  18.89060
 2.9733  18.52170
 2.9716  18.51010
 2.9699  18.85880
 2.9682  18.75570
 2.9665  18.30120
 2.9648  18.30690
 2.9631  18.40990
 2.9614  18.39640
 2.9597  18.44760
 2.9581  18.38950
 2.9564  18.04230
 2.9547  18.35960
 2.9530  18.29070
 2.9513  17.91760
 2.9496  18.12460
 2.9480  18.35010
 2.9463  18.10830
 2.9446  17.67580
 2.9429  17.85220
 2.9413  17.76980
 2.9396  17.68210
 2.9379  17.40070
 2.9363  17.42950
 2.9346  17.46250
 2.9330  17.45280
 2.9313  17.16560
 2.9296  17.25680
 2.9280  17.29400
 2.9263  16.99820
 2.9247  16.91570
 2.9230  16.97740
 2.9214  17.07740
 2.9197  16.90320
 2.9181  16.79720
 2.9165  16.86100
 2.9148  16.90410
 2.9132  16.46430
 2.9116  16.24840
 2.9099  16.70090
 2.9083  16.60420
 2.9067  16.54100
 2.9050  16.72880
 2.9034  16.63540
 2.9018  16.19530
 2.9002  16.44620
 2.8985  16.48560
 2.8969  15.84070
 2.8953  16.13790
 2.8937  16.56950
 2.8921  16.36670
 2.8905  16.41210
 2.8888  16.34280
 2.8872  16.27620
 2.8856  16.59420
 2.8840  16.43320
 2.8824  16.23530
 2.8808  16.20700
 2.8792  16.47800
 2.8776  16.63980
 2.8760  16.70570
 2.8744  16.73440
 2.8728  16.92920
 2.8712  17.14100
 2.8697  17.07600
 2.8681  16.65090
 2.8665  16.49630
 2.8649  16.59800
 2.8633  16.66310
 2.8617  16.18450
 2.8602  16.43740
 2.8586  16.71450
 2.8570  16.47790
 2.8554  16.42500
 2.8539  16.36280
 2.8523  16.00530
 2.8507  16.00790
 2.8492  16.26700
 2.8476  16.12970
 2.8460  16.07440
 2.8445  16.31180
 2.8429  16.08950
 2.8413  15.46180
 2.8398  15.44570
 2.8382  15.27140
 2.8367  14.98220
 2.8351  14.95570
 2.8336  15.00670
 2.8320  15.07900
 2.8305  14.89930
 2.8289  14.82630
 2.8274  14.93310
 2.8259  15.03930
 2.8243  14.80890
 2.8228  14.26930
 2.8213  13.86510
 2.8197  13.55740
 2.8182  13.02780
 2.8167  12.30810
 2.8151  12.18870
 2.8136  11.87530
 2.8121  11.33640
 2.8106  11.14430
 2.8090  11.26030
 2.8075  11.43480
 2.8060  10.96770
 2.8045  10.28450
 2.8030   9.83793
 2.8014   9.54339
 2.7999   9.53293
 2.7984   8.88381
 2.7969   7.95684
 2.7954   8.61390
 2.7939   8.53369
 2.7924   8.52876
 2.7909   8.48759
 2.7894   7.94705
 2.7879   7.56593
 2.7864   7.91118
 2.7849   8.08891
 2.7834   7.86351
 2.7819   7.44179
 2.7804   6.98962
 2.7789   6.60060
 2.7774   6.41622
 2.7759   6.65716
 2.7745   6.79267
 2.7730   7.09539
 2.7715   6.97917
 2.7700   6.78038
 2.7685   6.81757
 2.7671   6.78485
 2.7656   6.58811
 2.7641   6.46040
 2.7626   6.44660
 2.7612   6.27908
 2.7597   5.96356
 2.7582   5.67832
 2.7568   5.69547
 2.7553   5.89812
 2.7538   6.26687
 2.7524   6.31713
 2.7509   6.31608
 2.7494   6.38001
 2.7480   6.46008
 2.7465   5.96954
 2.7451   5.30164
 2.7436   5.77434
 2.7422   6.27746
 2.7407   6.15949
 2.7393   5.95521
 2.7378   5.89445
 2.7364   5.89924
 2.7350   6.23845
 2.7335   6.29035
 2.7321   5.87089
 2.7306   5.96794
 2.7292   6.41854
 2.7278   6.50759
 2.7263   6.51819
 2.7249   6.69947
 2.7235   6.91277
 2.7220   6.82014
 2.7206   7.07084
 2.7192   7.72901
 2.7178   8.35111
 2.7163   8.93712
 2.7149   9.51315
 2.7135   9.81146
 2.7121  10.37560
 2.7106  10.97650
 2.7092  11.61200
 2.7078  12.53210
 2.7064  12.87790
 2.7050  13.38820
 2.7036  13.86990
 2.7022  14.28440
 2.7008  14.87540
 2.6994  15.26150
 2.6980  15.61890
 2.6965  15.64120
 2.6951  16.07920
 2.6938  16.81570
 2.6923  16.95170
 2.6910  16.97210
 2.6896  17.23990
 2.6882  17.30450
 2.6868  17.66060
 2.6854  17.87120
 2.6840  17.85900
 2.6826  18.06890
 2.6812  18.40400
 2.6798  18.33420
 2.6784  18.34620
 2.6771  18.63260
 2.6757  18.56210
 2.6743  18.39080
 2.6729  18.94360
 2.6715  19.67170
 2.6702  19.78190
 2.6688  19.38230
 2.6674  19.30860
 2.6660  19.66630
 2.6647  19.62940
 2.6633  19.29590
 2.6619  19.10440
 2.6606  19.32800
 2.6592  19.79480
 2.6578  20.08750
 2.6565  19.97500
 2.6551  19.98390
 2.6538  20.49910
 2.6524  20.55900
 2.6511  20.58530
 2.6497  20.85710
 2.6484  20.83240
 2.6470  20.85630
 2.6456  20.77910
 2.6443  20.70910
 2.6429  20.67690
 2.6416  20.78190
 2.6403  21.12520
 2.6389  21.04330
 2.6376  21.07500
 2.6362  21.05800
 2.6349  20.76270
 2.6336  20.52010
 2.6322  20.63610
 2.6309  20.99970
 2.6296  21.01440
 2.6282  21.00780
 2.6269  21.07460
 2.6256  21.02560
 2.6242  20.85190
 2.6229  20.75460
 2.6216  21.10090
 2.6203  21.24160
 2.6189  21.22670
 2.6176  21.54910
 2.6163  21.45590
 2.6150  21.01740
 2.6136  20.60240
 2.6123  20.75170
 2.6110  20.90020
 2.6097  20.86350
 2.6084  21.13320
 2.6071  21.34750
 2.6058  21.60150
 2.6044  21.73530
 2.6031  21.45500
 2.6018  21.26970
 2.6005  21.14060
 2.5992  21.05660
 2.5979  21.31220
 2.5966  21.35850
 2.5953  21.67400
 2.5940  21.67470
 2.5927  21.45990
 2.5914  21.98480
 2.5901  21.79790
 2.5888  21.24470
 2.5876  21.34180
 2.5863  21.62920
 2.5850  22.04920
 2.5837  22.20710
 2.5824  21.87880
 2.5811  21.78610
 2.5798  22.00100
 2.5785  22.01430
 2.5773  22.18760
 2.5760  22.23400
 2.5747  22.07270
 2.5734  22.06900
 2.5722  22.32440
 2.5709  22.57790
 2.5696  22.30100
 2.5683  22.05070
 2.5671  22.34270
 2.5658  22.23360
 2.5645  22.05880
 2.5633  21.94780
 2.5620  22.27570
 2.5607  22.47070
 2.5595  22.02260
 2.5582  21.85030
 2.5569  22.29960
 2.5557  22.66240
 2.5544  22.48700
 2.5532  22.63020
 2.5519  22.87030
 2.5507  23.10020
 2.5494  23.08790
 2.5481  22.99270
 2.5469  22.90070
 2.5456  22.79560
 2.5444  22.64690
 2.5431  22.75060
 2.5419  22.74710
 2.5406  22.66070
 2.5394  22.71290
 2.5382  22.48290
 2.5369  22.69200
 2.5357  22.69180
 2.5344  22.58700
 2.5332  22.76630
 2.5320  22.79130
 2.5307  22.67920
 2.5295  22.64790
 2.5283  22.61600
 2.5270  22.42620
 2.5258  22.31330
 2.5246  22.31600
 2.5233  22.35060
 2.5221  22.41160
 2.5209  22.51600
 2.5197  22.30940
 2.5184  21.80470
 2.5172  21.75710
 2.5160  22.04120
 2.5148  21.95390
 2.5136  21.71360
 2.5123  21.72100
 2.5111  21.83790
 2.5099  21.66550
 2.5087  21.52640
 2.5075  21.27060
 2.5063  21.85440
 2.5051  22.08090
 2.5038  21.92040
 2.5026  21.95040
 2.5014  21.39160
 2.5002  21.43120
 2.4990  21.59470
 2.4978  21.24430
 2.4966  21.03620
 2.4954  21.17360
 2.4942  21.22150
 2.4930  21.03170
 2.4918  21.08350
 2.4906  21.34160
 2.4894  21.42240
 2.4882  21.49500
 2.4870  21.46580
 2.4858  21.33520
 2.4846  21.04500
 2.4835  21.09690
 2.4823  21.15380
 2.4811  20.91070
 2.4799  20.93760
 2.4787  21.13900
 2.4775  20.93240
 2.4764  20.38780
 2.4752  20.31210
 2.4740  20.52610
 2.4728  20.61080
 2.4716  21.12400
 2.4705  21.12560
 2.4693  20.26570
 2.4681  19.79130
 2.4669  20.11740
 2.4657  20.87040
 2.4646  20.98000
 2.4634  20.45430
 2.4622  19.96790
 2.4611  20.05140
 2.4599  19.98090
 2.4587  19.60370
 2.4576  19.58880
 2.4564  20.11100
 2.4552  20.24340
 2.4541  19.87050
 2.4529  19.27370
 2.4518  19.32990
 2.4506  20.26570
 2.4494  20.46270
 2.4483  19.91190
 2.4471  19.04200
 2.4460  19.10590
 2.4448  19.40920
 2.4437  19.43010
 2.4425  19.54460
 2.4414  19.27010
 2.4402  19.25050
 2.4391  19.42230
 2.4379  19.57570
 2.4368  19.48340
 2.4356  19.69980
 2.4345  19.21210
 2.4333  19.04290
 2.4322  19.79430
 2.4311  19.75850
 2.4299  19.71920
 2.4288  20.26910
 2.4276  20.38140
 2.4265  19.78440
 2.4254  19.51490
 2.4242  19.84810
 2.4231  20.36080
 2.4220  20.16520
 2.4209  20.26130
 2.4197  20.21440
 2.4186  20.23310
 2.4175  20.99430
 2.4163  21.13010
 2.4152  20.74340
 2.4141  20.79220
 2.4130  20.66890
 2.4118  20.47310
 2.4107  20.29160
 2.4096  20.52560
 2.4085  20.92420
 2.4074  21.27050
 2.4063  21.46950
 2.4051  21.49020
 2.4040  20.83800
 2.4029  20.71780
 2.4018  21.15670
 2.4007  21.34790
 2.3996  21.34740
 2.3985  21.28990
 2.3973  21.17920
 2.3962  20.81120
 2.3951  21.06490
 2.3940  21.17860
 2.3929  20.91050
 2.3918  21.09130
 2.3907  21.30530
 2.3896  21.49450
 2.3885  21.30430
 2.3874  21.31160
 2.3863  21.27630
 2.3852  20.96550
 2.3841  20.87950
 2.3830  21.46880
 2.3819  21.40700
 2.3808  20.89520
 2.3798  20.90860
 2.3786  20.90970
 2.3776  20.78460
 2.3765  20.94850
 2.3754  21.45610
 2.3743  21.33710
 2.3732  20.65770
 2.3721  20.42720
 2.3710  20.94330
 2.3700  21.44980
 2.3689  21.05100
 2.3678  20.64170
 2.3667  20.66320
 2.3656  20.97060
 2.3645  21.27560
 2.3635  21.35540
 2.3624  21.32420
 2.3613  21.69040
 2.3603  21.62280
 2.3592  21.09730
 2.3581  20.81490
 2.3570  20.62810
 2.3560  20.83540
 2.3549  21.26530
 2.3538  21.09430
 2.3527  20.85840
 2.3517  20.77180
 2.3506  20.71230
 2.3495  20.52830
 2.3485  20.28080
 2.3474  20.54100
 2.3464  20.36130
 2.3453  20.32300
 2.3442  20.44470
 2.3432  20.55650
 2.3421  20.65970
 2.3411  20.40780
 2.3400  20.50850
 2.3390  20.80880
 2.3379  21.33620
 2.3369  21.25210
 2.3358  21.22670
 2.3347  21.88150
 2.3337  21.90370
 2.3326  21.94520
 2.3316  21.53240
 2.3306  21.03610
 2.3295  21.82180
 2.3285  22.53820
 2.3274  22.25830
 2.3264  22.36790
 2.3253  22.00780
 2.3243  21.98400
 2.3232  22.69390
 2.3222  22.81960
 2.3212  22.66290
 2.3201  22.98580
 2.3191  23.21210
 2.3180  23.55950
 2.3170  23.68210
 2.3160  23.83650
 2.3149  23.90870
 2.3139  23.94660
 2.3129  24.08150
 2.3118  24.20140
 2.3108  24.16190
 2.3098  24.38590
 2.3088  25.20130
 2.3077  25.55580
 2.3067  25.72870
 2.3057  25.69160
 2.3047  25.41990
 2.3036  25.02680
 2.3026  25.17630
 2.3016  25.84600
 2.3006  26.12000
 2.2995  26.11680
 2.2985  26.08030
 2.2975  26.31560
 2.2965  26.48800
 2.2955  26.97900
 2.2944  27.44930
 2.2934  27.05650
 2.2924  26.84620
 2.2914  26.91100
 2.2904  26.74160
 2.2894  26.45040
 2.2884  26.85780
 2.2874  27.73300
 2.2864  27.11040
 2.2854  26.62850
 2.2843  26.86140
 2.2833  26.88300
 2.2823  27.03190
 2.2813  27.50960
 2.2803  27.57430
 2.2793  27.42020
 2.2783  28.03970
 2.2773  28.09100
 2.2763  27.60640
 2.2753  27.44810
 2.2743  27.54420
 2.2733  27.76060
 2.2723  27.57400
 2.2713  27.95900
 2.2703  28.04670
 2.2694  27.44040
 2.2684  27.08720
 2.2674  27.22820
 2.2664  27.22460
 2.2654  27.02610
 2.2644  26.93400
 2.2634  27.28530
 2.2624  27.57340
 2.2614  27.71790
 2.2605  27.94130
 2.2595  27.42930
 2.2585  26.91720
 2.2575  26.72130
 2.2565  26.58300
 2.2555  26.08630
 2.2546  25.68670
 2.2536  25.69400
 2.2526  25.91000
 2.2516  26.10090
 2.2506  25.56250
 2.2497  25.08180
 2.2487  25.66810
 2.2477  25.66690
 2.2467  25.46530
 2.2458  25.63360
 2.2448  26.12560
 2.2438  25.83020
 2.2428  24.86970
 2.2419  24.31610
 2.2409  24.65130
 2.2399  24.89090
 2.2390  24.32850
 2.2380  24.23580
 2.2370  24.82900
 2.2361  24.69590
 2.2351  24.24620
 2.2342  24.32910
 2.2332  25.02460
 2.2322  24.76100
 2.2313  24.51290
 2.2303  24.64780
 2.2294  23.97440
 2.2284  22.90250
 2.2274  22.77630
 2.2265  23.16770
 2.2255  23.23890
 2.2246  23.09010
 2.2236  22.55430
 2.2227  22.28220
 2.2217  22.30430
 2.2208  21.94020
 2.2198  21.89610
 2.2189  21.94570
 2.2179  21.59580
 2.2170  20.96270
 2.2160  21.21330
 2.2151  21.83010
 2.2141  21.39380
 2.2132  20.87960
 2.2122  20.49070
 2.2113  20.16110
 2.2103  19.95410
 2.2094  19.96530
 2.2085  20.20470
 2.2075  20.12450
 2.2066  19.89260
 2.2056  19.69180
 2.2047  19.32370
 2.2038  18.80010
 2.2028  18.35550
 2.2019  18.30640
 2.2010  18.87580
 2.2000  19.51720
 2.1991  19.83060
 2.1982  19.33590
 2.1972  18.95110
 2.1963  19.77880
 2.1954  19.79340
 2.1944  19.31090
 2.1935  19.39150
 2.1926  19.98850
 2.1917  20.12450
 2.1907  20.36130
 2.1898  20.47580
 2.1889  20.34440
 2.1880  20.40430
 2.1870  20.89440
 2.1861  21.19550
 2.1852  21.65410
 2.1843  22.30220
 2.1833  22.21970
 2.1824  22.16560
 2.1815  22.35010
 2.1806  22.81040
 2.1797  23.60140
 2.1788  24.01370
 2.1778  24.06220
 2.1769  24.37340
 2.1760  25.01920
 2.1751  25.29300
 2.1742  25.17860
 2.1733  25.03880
 2.1724  25.33350
 2.1715  26.21640
 2.1706  26.60250
 2.1696  26.53450
 2.1687  27.33920
 2.1678  27.87990
 2.1669  27.83360
 2.1660  28.22710
 2.1651  28.94470
 2.1642  28.56220
 2.1633  27.83180
 2.1624  27.67840
 2.1615  28.40170
 2.1606  29.58040
 2.1597  29.88510
 2.1588  28.80220
 2.1579  28.48140
 2.1570  29.09250
 2.1561  29.70110
 2.1552  30.49240
 2.1543  30.62710
 2.1534  29.51260
 2.1525  29.27490
 2.1517  30.31650
 2.1507  30.31650
 2.1499  30.26550
 2.1490  30.12100
 2.1481  30.04490
 2.1472  30.43670
 2.1463  30.95670
 2.1454  31.37630
 2.1445  31.36760
 2.1436  31.19400
 2.1428  30.99600
 2.1419  31.06760
 2.1410  31.37530
 2.1401  30.85410
 2.1392  30.96920
 2.1383  30.97290
 2.1375  31.20080
 2.1366  32.00240
 2.1357  31.78820
 2.1348  31.48350
 2.1339  31.41270
 2.1331  31.05330
 2.1322  31.28850
 2.1313  31.38000
 2.1304  31.17380
 2.1296  31.30490
 2.1287  31.69480
 2.1278  31.61480
 2.1269  31.49990
 2.1261  31.52660
 2.1252  31.33720
 2.1243  30.91490
 2.1235  31.19570
 2.1226  31.76350
 2.1217  31.41820
 2.1208  30.66870
 2.1200  30.54010
 2.1191  30.82860
 2.1183  31.25380
 2.1174  30.81780
 2.1165  30.48030
 2.1157  31.53250
 2.1148  32.47460
 2.1139  32.12040
 2.1131  31.84890
 2.1122  31.07690
 2.1113  31.13200
 2.1105  32.05870
 2.1096  32.06940
 2.1088  32.21960
 2.1079  32.18770
 2.1071  31.76880
 2.1062  31.38450
 2.1054  31.42880
 2.1045  32.39300
 2.1036  32.72070
 2.1028  32.41980
 2.1019  32.07690
 2.1011  32.77030
 2.1002  33.80160
 2.0994  33.67790
 2.0985  33.48460
 2.0977  34.22850
 2.0968  34.82130
 2.0960  34.31150
 2.0951  34.55710
 2.0943  35.27440
 2.0934  34.92010
 2.0926  34.17520
 2.0918  33.05590
 2.0909  32.74240
 2.0901  33.04180
 2.0892  34.06310
 2.0884  34.53930
 2.0875  35.26910
 2.0867  34.62820
 2.0859  33.97330
 2.0850  34.46970
 2.0842  33.84910
 2.0833  34.66220
 2.0825  35.91260
 2.0817  35.46140
 2.0808  34.73000
 2.0800  35.00680
 2.0792  34.73840
 2.0783  34.79320
 2.0775  35.93980
 2.0767  36.80020
 2.0759  35.82260
 2.0750  34.38770
 2.0742  34.01730
 2.0734  34.78490
 2.0725  36.01770
 2.0717  36.46260
 2.0709  34.48920
 2.0701  34.05910
 2.0692  34.92610
 2.0684  33.65950
 2.0676  34.17040
 2.0667  35.67620
 2.0659  36.10780
 2.0651  36.55520
 2.0643  36.23280
 2.0635  34.94250
 2.0626  34.86530
 2.0618  35.39350
 2.0610  35.57100
 2.0602  35.03710
 2.0594  34.58540
 2.0585  34.97320
 2.0577  35.80100
 2.0569  36.15600
 2.0561  36.40900
 2.0553  36.79120
 2.0545  36.77840
 2.0537  36.33600
 2.0528  35.39000
 2.0520  33.74880
 2.0512  35.14340
 2.0504  36.40400
 2.0496  37.00170
 2.0488  36.78220
 2.0480  35.91680
 2.0472  35.19230
 2.0464  35.52490
 2.0456  35.92580
 2.0447  34.48540
 2.0439  35.02790
 2.0431  36.54790
 2.0423  36.39500
 2.0415  35.78490
 2.0407  36.11540
 2.0399  35.17120
 2.0391  35.21490
 2.0383  35.65320
 2.0375  36.23380
 2.0367  35.77150
 2.0359  35.04430
 2.0351  35.35110
 2.0343  36.37070
 2.0335  36.76250
 2.0327  37.16970
 2.0319  36.59030
 2.0311  36.06410
 2.0303  36.62180
 2.0295  36.14680
 2.0287  34.90910
 2.0280  35.57870
 2.0272  35.80760
 2.0264  35.13400
 2.0256  35.35230
 2.0248  35.80350
 2.0240  36.10710
 2.0232  36.43980
 2.0224  36.38510
 2.0216  36.19520
 2.0208  35.59110
 2.0200  34.60920
 2.0193  35.48630
 2.0185  36.39620
 2.0177  36.29740
 2.0169  35.43960
 2.0161  35.57190
 2.0153  36.10660
 2.0146  35.71250
 2.0138  35.72850
 2.0130  37.11110
 2.0122  36.54110
 2.0114  35.81020
 2.0107  36.18430
 2.0099  35.87100
 2.0091  35.63950
 2.0083  35.24890
 2.0075  36.18480
 2.0068  36.59180
 2.0060  36.18910
 2.0052  35.92690
 2.0044  34.88370
 2.0037  34.82030
 2.0029  35.87490
 2.0021  36.00190
 2.0013  35.80410
 2.0006  35.80440
 1.9998  37.17710
