Name: Red-orange sandy loam
Type:  Soils
Class: Entisol
Subclass: 
Particle Size:  see additional information
Sample No.: fgg033
Owner:  University of NSW
Wavelength range:  All
Origin: Fowlers Gap, western New South Wales, Australia
Hewson(1998) PhD thesis 
Description: Parent material consists of aeolian silts/clays and sandstone debris.

Physiography: Floodplain outwash from sandstone hillslopes.



Measurement: Directional hemispherical reflectance 
First Column:  X
Second Column:  Y
X Units:  Wavelength (micrometers)
Y Units:  Reflectance (percent)
First X Value:  14.0131
Last X Value:  2.00032
Number of X Values:  2223
Additional information:  fgg033a.txt
	
14.0131	1.18950
13.9753	1.35246
13.9377	1.34455
13.9004	1.34711
13.8632	1.36994
13.8262	1.55021
13.7895	1.57573
13.7529	1.59619
13.7165	1.54707
13.6803	1.63052
13.6443	1.67746
13.6085	1.64867
13.5729	1.66527
13.5374	1.60770
13.5022	1.54330
13.4671	1.59424
13.4322	1.70121
13.3975	1.64581
13.3630	1.53605
13.3286	1.49803
13.2944	1.51132
13.2604	1.49508
13.2266	1.59615
13.1930	1.68539
13.1595	1.80070
13.1262	1.83928
13.0930	1.89383
13.0600	1.87634
13.0272	1.85066
12.9946	1.83530
12.9621	1.79437
12.9298	1.80023
12.8976	1.86403
12.8656	1.84830
12.8337	1.95083
12.8021	2.07765
12.7705	1.94929
12.7391	1.88960
12.7079	1.72784
12.6769	1.63910
12.6459	1.74921
12.6152	1.67269
12.5845	1.60528
12.5541	1.55249
12.5238	1.63746
12.4936	1.72390
12.4635	1.62064
12.4337	1.58633
12.4039	1.39511
12.3743	1.26533
12.3448	1.32265
12.3155	1.35324
12.2863	1.56586
12.2573	1.64998
12.2284	1.55220
12.1996	1.61734
12.1710	1.64890
12.1425	1.68221
12.1141	1.79794
12.0859	1.87451
12.0578	1.96004
12.0298	1.91002
12.0019	1.93770
11.9742	1.92433
11.9466	2.00164
11.9192	2.17575
11.8918	2.17744
11.8646	2.16752
11.8375	2.29802
11.8106	2.34648
11.7837	2.39331
11.7570	2.56422
11.7304	2.60094
11.7039	2.57688
11.6776	2.49943
11.6513	2.54072
11.6252	2.50466
11.5992	2.44364
11.5733	2.48677
11.5475	2.46535
11.5219	2.43065
11.4963	2.46386
11.4709	2.51167
11.4455	2.57612
11.4203	2.44669
11.3952	2.28614
11.3702	2.38380
11.3454	2.43165
11.3206	2.38166
11.2959	2.40418
11.2714	2.49561
11.2469	2.52468
11.2226	2.45539
11.1983	2.54624
11.1742	2.65012
11.1502	2.57356
11.1263	2.50977
11.1024	2.48148
11.0787	2.53008
11.0551	2.57208
11.0316	2.45888
11.0081	2.39408
10.9848	2.47880
10.9616	2.52455
10.9385	2.52085
10.9154	2.41898
10.8925	2.21392
10.8697	2.06389
10.8469	2.11365
10.8243	2.13955
10.8017	2.10555
10.7793	2.10263
10.7569	2.08066
10.7346	2.21700
10.7125	2.25073
10.6904	2.14145
10.6684	2.18086
10.6465	2.14110
10.6247	2.15453
10.6029	2.26647
10.5813	2.29325
10.5597	2.39813
10.5383	2.43908
10.5169	2.40255
10.4956	2.44337
10.4744	2.52093
10.4533	2.56572
10.4323	2.56556
10.4113	2.59821
10.3904	2.59288
10.3697	2.68531
10.3490	2.83431
10.3284	2.80722
10.3078	2.88709
10.2874	3.02365
10.2670	3.06709
10.2467	3.14997
10.2265	3.22568
10.2064	3.23785
10.1863	3.25931
10.1663	3.22021
10.1464	3.25071
10.1266	3.42771
10.1069	3.58493
10.0872	3.66790
10.0676	3.73003
10.0481	3.76198
10.0287	3.83910
10.0093	4.12426
9.9901	4.30708
9.9708	4.45240
9.9517	4.61352
9.9326	4.75654
9.9136	4.84354
9.8947	4.76774
9.8759	4.66401
9.8571	4.57733
9.8384	4.56890
9.8198	4.60576
9.8012	4.65929
9.7827	4.77300
9.7643	4.98809
9.7459	5.24424
9.7276	5.43500
9.7094	5.70859
9.6913	5.93399
9.6732	6.07692
9.6552	6.12859
9.6372	6.12101
9.6194	6.28118
9.6016	6.32557
9.5838	6.39556
9.5661	6.51112
9.5485	6.55890
9.5309	6.69106
9.5135	6.65280
9.4960	6.71525
9.4787	6.78048
9.4614	6.77881
9.4441	7.00862
9.4270	7.13470
9.4099	7.13047
9.3928	7.17915
9.3758	7.16035
9.3589	7.26381
9.3420	7.34398
9.3252	7.15759
9.3085	6.99295
9.2918	6.98540
9.2752	6.89331
9.2586	6.76776
9.2421	6.61082
9.2257	6.40232
9.2093	6.31261
9.1930	6.25885
9.1767	6.24200
9.1605	6.14553
9.1443	5.85788
9.1282	5.64248
9.1122	5.53864
9.0962	5.37596
9.0803	5.24902
9.0644	5.21508
9.0486	5.21059
9.0328	5.04978
9.0171	4.73432
9.0015	4.60965
8.9859	4.89157
8.9703	5.09319
8.9548	5.17589
8.9394	5.30720
8.9240	5.29218
8.9087	5.54636
8.8934	5.76570
8.8781	5.69001
8.8630	5.79219
8.8478	5.89562
8.8328	5.87311
8.8177	5.82648
8.8028	5.74252
8.7879	5.64502
8.7730	5.58265
8.7582	5.64818
8.7434	5.60780
8.7287	5.58598
8.7140	5.50451
8.6994	5.33769
8.6848	5.13103
8.6703	5.02585
8.6558	4.73626
8.6414	4.29957
8.6270	4.11056
8.6127	4.30903
8.5984	4.68054
8.5842	4.99766
8.5700	5.28235
8.5558	5.43570
8.5417	5.51878
8.5277	5.52181
8.5137	5.45840
8.4997	5.39984
8.4858	5.43114
8.4720	5.57159
8.4581	5.66319
8.4444	5.64225
8.4306	5.56562
8.4169	5.71827
8.4033	5.91350
8.3897	6.04848
8.3761	6.12277
8.3626	6.24525
8.3492	6.33606
8.3357	6.50454
8.3224	6.67607
8.3090	6.76990
8.2957	6.83760
8.2825	6.87530
8.2693	7.09045
8.2561	7.41037
8.2430	7.57879
8.2299	7.55365
8.2169	7.58072
8.2039	7.70080
8.1909	7.74025
8.1780	7.59367
8.1651	7.38067
8.1523	7.20833
8.1395	6.92846
8.1267	6.69411
8.1140	6.27451
8.1013	5.95186
8.0887	5.72221
8.0761	5.31988
8.0635	5.01735
8.0510	4.79282
8.0385	4.53609
8.0261	4.35183
8.0137	4.20189
8.0013	4.00906
7.9890	3.79482
7.9767	3.69507
7.9644	3.54958
7.9522	3.30089
7.9400	3.10300
7.9279	2.92861
7.9158	2.80380
7.9037	2.67772
7.8917	2.59003
7.8797	2.56660
7.8677	2.51429
7.8558	2.40843
7.8439	2.34413
7.8321	2.26434
7.8203	2.15762
7.8085	2.14009
7.7967	2.24630
7.7850	2.23365
7.7734	2.17458
7.7617	2.20213
7.7501	2.22180
7.7386	2.26082
7.7270	2.20613
7.7155	2.12286
7.7041	2.16723
7.6926	2.24796
7.6812	2.25611
7.6699	2.18235
7.6586	2.09158
7.6473	2.03797
7.6360	2.04560
7.6248	2.12805
7.6136	2.06789
7.6024	2.04466
7.5913	2.11469
7.5802	2.08445
7.5691	2.06362
7.5581	2.09614
7.5471	2.12452
7.5361	2.15032
7.5252	2.15213
7.5143	2.19438
7.5034	2.19787
7.4925	2.23078
7.4817	2.26220
7.4709	2.27225
7.4602	2.29058
7.4495	2.28549
7.4388	2.27394
7.4281	2.33481
7.4175	2.33874
7.4069	2.30270
7.3963	2.27705
7.3858	2.31933
7.3753	2.40852
7.3648	2.40302
7.3544	2.37160
7.3440	2.39872
7.3336	2.43801
7.3232	2.46435
7.3129	2.49141
7.3026	2.43544
7.2923	2.44178
7.2821	2.48134
7.2719	2.48567
7.2617	2.51803
7.2515	2.59653
7.2414	2.69482
7.2313	2.67300
7.2212	2.68190
7.2112	2.80108
7.2012	2.88481
7.1912	2.83882
7.1812	2.77702
7.1713	2.78197
7.1614	2.89495
7.1515	2.87622
7.1416	2.79637
7.1318	2.80581
7.1220	2.84256
7.1123	2.84107
7.1025	2.84880
7.0928	2.95038
7.0831	2.98892
7.0734	2.88021
7.0638	2.85780
7.0542	2.91630
7.0446	2.91848
7.0351	2.95502
7.0255	3.08881
7.0160	3.04547
7.0065	3.02444
6.9971	3.09979
6.9877	3.16341
6.9782	3.21114
6.9689	3.25684
6.9595	3.34929
6.9502	3.30642
6.9409	3.28373
6.9316	3.33097
6.9223	3.34652
6.9131	3.46945
6.9039	3.60120
6.8947	3.62237
6.8856	3.56119
6.8764	3.49618
6.8673	3.50534
6.8582	3.56846
6.8492	3.60450
6.8402	3.66197
6.8311	3.60044
6.8222	3.61807
6.8132	3.73720
6.8042	3.82630
6.7953	3.82185
6.7864	3.76660
6.7776	3.73044
6.7687	3.70940
6.7599	3.73384
6.7511	3.81539
6.7423	3.83308
6.7336	3.87075
6.7248	3.92799
6.7161	3.92897
6.7074	3.93103
6.6988	3.90295
6.6901	3.86075
6.6815	3.85524
6.6729	3.98418
6.6643	4.10917
6.6558	4.11182
6.6472	4.05491
6.6387	4.01646
6.6302	4.06738
6.6218	4.04647
6.6133	4.05575
6.6049	3.98116
6.5965	3.89717
6.5881	3.91020
6.5797	3.93087
6.5714	3.89483
6.5631	3.94945
6.5548	3.93959
6.5465	3.85825
6.5383	3.97339
6.5300	4.07388
6.5218	4.08319
6.5136	4.11240
6.5054	4.22209
6.4973	4.28734
6.4892	4.28650
6.4810	4.30108
6.4730	4.35729
6.4649	4.40459
6.4568	4.38096
6.4488	4.42624
6.4408	4.50732
6.4328	4.56727
6.4248	4.60582
6.4169	4.54600
6.4089	4.55197
6.4010	4.48003
6.3931	4.32946
6.3853	4.30393
6.3774	4.27189
6.3696	4.17599
6.3618	4.17595
6.3540	4.06703
6.3462	3.96289
6.3384	3.90461
6.3307	3.83075
6.3230	3.76374
6.3153	3.66168
6.3076	3.56602
6.2999	3.47954
6.2923	3.37604
6.2847	3.25376
6.2770	3.15003
6.2695	3.11175
6.2619	3.01386
6.2543	2.90581
6.2468	2.92159
6.2393	2.87869
6.2318	2.75677
6.2243	2.62118
6.2168	2.49565
6.2094	2.33706
6.2020	2.25963
6.1945	2.30508
6.1872	2.23287
6.1798	2.15830
6.1724	2.06161
6.1651	2.02757
6.1578	2.00631
6.1505	1.96169
6.1432	1.91009
6.1359	1.80995
6.1286	1.69563
6.1214	1.69600
6.1142	1.74659
6.1070	1.74011
6.0998	1.79175
6.0926	1.90386
6.0855	1.89213
6.0784	1.84344
6.0712	1.88123
6.0641	1.90012
6.0571	1.90011
6.0500	1.86752
6.0429	1.87723
6.0359	1.97177
6.0289	2.05055
6.0219	2.06503
6.0149	2.08020
6.0079	2.14485
6.0010	2.20688
5.9940	2.16068
5.9871	2.14134
5.9802	2.20581
5.9733	2.24494
5.9664	2.32778
5.9596	2.41493
5.9527	2.53744
5.9459	2.68619
5.9391	2.75196
5.9323	2.73099
5.9255	2.79427
5.9188	2.92290
5.9120	3.09625
5.9053	3.21751
5.8986	3.39167
5.8919	3.61482
5.8852	3.71968
5.8785	3.88723
5.8718	4.10494
5.8652	4.23539
5.8586	4.36436
5.8520	4.62952
5.8454	4.92461
5.8388	5.06881
5.8322	5.13308
5.8257	5.27368
5.8191	5.44436
5.8126	5.59968
5.8061	5.81267
5.7996	6.00804
5.7931	6.17908
5.7867	6.35212
5.7802	6.49894
5.7738	6.64714
5.7673	6.78341
5.7609	7.00583
5.7545	7.11289
5.7482	7.22049
5.7418	7.39882
5.7354	7.52373
5.7291	7.55350
5.7228	7.65089
5.7165	7.76471
5.7102	7.87132
5.7039	7.94705
5.6976	8.01258
5.6914	8.10488
5.6851	8.12504
5.6789	8.04703
5.6727	7.94401
5.6665	7.86408
5.6603	7.84943
5.6541	7.72636
5.6480	7.64295
5.6418	7.51471
5.6357	7.32006
5.6296	7.23659
5.6235	7.24209
5.6174	7.14416
5.6113	7.04136
5.6052	7.00057
5.5992	7.02364
5.5931	7.02219
5.5871	6.98301
5.5811	6.98495
5.5751	6.99575
5.5691	6.93947
5.5631	6.91778
5.5572	7.01251
5.5512	7.13664
5.5453	7.13886
5.5394	7.12159
5.5334	7.17849
5.5275	7.30011
5.5217	7.46513
5.5158	7.51076
5.5099	7.46208
5.5041	7.49958
5.4982	7.65028
5.4924	7.74642
5.4866	7.81374
5.4808	7.86548
5.4750	7.92005
5.4692	8.02612
5.4635	8.16208
5.4577	8.27697
5.4520	8.35853
5.4463	8.39241
5.4405	8.35821
5.4348	8.33139
5.4291	8.32734
5.4235	8.25020
5.4178	8.09746
5.4121	7.95366
5.4065	7.79532
5.4009	7.55031
5.3953	7.26296
5.3896	7.06662
5.3840	6.92533
5.3785	6.77132
5.3729	6.64004
5.3673	6.59625
5.3618	6.56302
5.3562	6.53081
5.3507	6.54646
5.3452	6.54405
5.3397	6.57633
5.3342	6.67243
5.3287	6.74408
5.3232	6.78876
5.3178	6.82228
5.3123	6.85173
5.3069	6.90893
5.3015	6.94964
5.2961	7.02574
5.2907	7.17427
5.2853	7.31519
5.2799	7.42792
5.2745	7.56033
5.2691	7.65056
5.2638	7.78506
5.2585	8.02199
5.2531	8.24346
5.2478	8.43688
5.2425	8.59358
5.2372	8.75843
5.2319	9.04777
5.2267	9.24301
5.2214	9.37685
5.2161	9.53991
5.2109	9.68104
5.2057	9.86560
5.2004	9.97082
5.1952	10.00380
5.1900	10.06200
5.1848	10.07450
5.1797	9.99854
5.1745	9.95677
5.1693	9.99538
5.1642	10.02110
5.1590	10.04980
5.1539	10.16730
5.1488	10.18400
5.1437	10.08810
5.1386	10.09170
5.1335	10.08850
5.1284	10.16100
5.1234	10.23740
5.1183	10.19980
5.1133	10.20230
5.1082	10.25900
5.1032	10.31000
5.0982	10.32600
5.0932	10.27670
5.0882	10.21780
5.0832	10.13530
5.0782	10.13000
5.0732	10.14720
5.0683	10.11550
5.0633	10.15610
5.0584	10.14860
5.0534	10.15220
5.0485	10.22300
5.0436	10.35610
5.0387	10.36850
5.0338	10.33830
5.0289	10.28700
5.0241	10.26150
5.0192	10.30700
5.0144	10.33180
5.0095	10.36860
5.0047	10.48370
4.9998	10.59090
4.9950	10.67610
4.9902	10.76270
4.9854	10.81360
4.9806	10.92610
4.9759	11.16750
4.9711	11.45380
4.9663	11.68280
4.9616	11.88510
4.9568	12.09270
4.9521	12.25080
4.9474	12.39610
4.9426	12.53310
4.9379	12.67280
4.9332	12.76840
4.9286	12.90030
4.9239	13.08830
4.9192	13.32070
4.9145	13.59110
4.9099	13.83060
4.9052	14.17700
4.9006	14.56700
4.8960	15.00840
4.8914	15.45420
4.8867	15.83450
4.8821	16.15320
4.8776	16.44320
4.8730	16.65110
4.8684	16.84840
4.8638	17.10340
4.8593	17.31020
4.8547	17.49220
4.8502	17.61910
4.8456	17.78050
4.8411	17.91470
4.8366	17.98740
4.8321	18.08680
4.8276	18.25230
4.8231	18.37870
4.8186	18.44070
4.8142	18.50360
4.8097	18.58100
4.8052	18.66320
4.8008	18.79980
4.7963	18.89620
4.7919	18.94490
4.7875	18.97200
4.7831	19.02720
4.7787	19.07210
4.7743	19.15360
4.7699	19.25600
4.7655	19.27810
4.7611	19.34180
4.7567	19.51300
4.7524	19.59780
4.7480	19.59160
4.7437	19.64510
4.7393	19.59230
4.7350	19.68080
4.7307	19.70990
4.7264	19.67690
4.7221	19.69080
4.7178	19.71910
4.7135	19.67720
4.7092	19.66450
4.7049	19.70300
4.7007	19.65560
4.6964	19.56290
4.6922	19.45010
4.6879	19.35620
4.6837	19.39090
4.6795	19.50110
4.6752	19.53270
4.6710	19.48060
4.6668	19.58680
4.6626	19.83220
4.6584	19.98130
4.6543	20.02470
4.6501	20.17100
4.6459	20.32600
4.6418	20.48940
4.6376	20.63220
4.6335	20.73980
4.6293	20.85390
4.6252	20.91080
4.6211	20.95410
4.6170	21.02390
4.6128	21.13530
4.6087	21.19280
4.6047	21.28180
4.6006	21.42010
4.5965	21.54220
4.5924	21.60250
4.5884	21.66220
4.5843	21.68860
4.5802	21.66290
4.5762	21.70870
4.5722	21.83870
4.5681	21.87290
4.5641	21.87180
4.5601	21.87570
4.5561	21.87040
4.5521	21.83940
4.5481	21.83680
4.5441	21.84160
4.5401	21.78440
4.5362	21.71740
4.5322	21.71040
4.5282	21.63500
4.5243	21.57450
4.5203	21.51230
4.5164	21.43470
4.5125	21.27660
4.5086	21.13330
4.5046	20.96550
4.5007	20.89090
4.4968	20.89370
4.4929	20.95290
4.4890	20.96150
4.4852	20.89850
4.4813	20.82380
4.4774	20.79950
4.4735	20.80280
4.4697	20.81760
4.4658	20.86450
4.4620	20.88370
4.4582	20.98110
4.4543	21.12710
4.4505	21.35230
4.4467	21.47580
4.4429	21.46760
4.4391	21.54260
4.4353	21.65940
4.4315	21.77750
4.4277	21.91340
4.4239	22.00410
4.4202	22.06650
4.4164	22.15890
4.4126	22.35840
4.4089	22.51630
4.4051	22.58550
4.4014	22.65910
4.3977	22.79650
4.3939	22.94640
4.3902	23.03530
4.3865	23.14210
4.3828	23.29250
4.3791	23.47510
4.3754	23.62970
4.3717	23.71640
4.3680	23.82180
4.3643	23.95770
4.3607	24.08440
4.3570	24.24840
4.3534	24.38860
4.3497	24.47550
4.3461	24.61350
4.3424	24.63330
4.3388	24.68200
4.3351	24.77580
4.3315	24.83560
4.3279	24.87780
4.3243	24.93660
4.3207	25.04900
4.3171	25.12670
4.3135	25.16030
4.3099	25.23190
4.3063	25.30150
4.3028	25.27610
4.2992	25.36620
4.2956	25.39730
4.2921	25.40330
4.2885	25.43920
4.2850	25.47740
4.2815	25.48260
4.2779	25.52490
4.2744	25.54720
4.2709	25.50760
4.2674	25.56420
4.2638	25.71080
4.2603	25.82340
4.2568	25.90280
4.2534	26.08320
4.2499	26.19950
4.2464	26.30380
4.2429	26.45660
4.2394	26.50570
4.2360	26.53000
4.2325	26.65620
4.2291	26.73850
4.2256	26.75070
4.2222	26.77380
4.2187	26.82250
4.2153	26.90390
4.2119	27.04880
4.2085	27.17370
4.2051	27.14930
4.2017	27.13030
4.1983	27.29260
4.1949	27.42610
4.1915	27.43990
4.1881	27.49020
4.1847	27.56100
4.1813	27.62630
4.1780	27.67010
4.1746	27.73560
4.1712	27.83130
4.1679	27.92710
4.1645	27.99940
4.1612	28.07320
4.1579	28.20050
4.1545	28.29400
4.1512	28.32360
4.1479	28.38560
4.1446	28.43530
4.1412	28.52950
4.1379	28.67380
4.1346	28.72990
4.1313	28.70890
4.1281	28.84420
4.1248	29.01960
4.1215	29.08990
4.1182	29.05700
4.1150	29.10900
4.1117	29.24810
4.1084	29.33920
4.1052	29.43310
4.1019	29.49600
4.0987	29.58050
4.0955	29.64510
4.0922	29.65850
4.0890	29.80880
4.0858	29.90060
4.0826	29.89890
4.0793	29.90090
4.0761	29.98280
4.0729	30.10330
4.0697	30.17690
4.0665	30.21210
4.0634	30.29550
4.0602	30.35340
4.0570	30.39840
4.0538	30.45540
4.0507	30.51060
4.0475	30.57370
4.0443	30.58100
4.0412	30.63250
4.0380	30.66570
4.0349	30.66030
4.0318	30.65400
4.0286	30.71310
4.0255	30.74760
4.0224	30.81420
4.0193	30.98410
4.0161	30.95490
4.0130	30.86060
4.0099	30.85760
4.0068	30.95420
4.0037	31.03470
4.0006	31.10030
3.9976	31.09720
3.9945	31.00760
3.9914	31.07900
3.9883	31.22590
3.9853	31.24420
3.9822	31.23820
3.9792	31.29770
3.9761	31.36270
3.9731	31.35380
3.9700	31.33090
3.9670	31.42910
3.9639	31.45090
3.9609	31.43620
3.9579	31.39350
3.9549	31.40680
3.9519	31.49160
3.9489	31.63360
3.9458	31.67520
3.9428	31.70430
3.9398	31.65100
3.9369	31.57930
3.9339	31.56180
3.9309	31.59830
3.9279	31.61110
3.9249	31.56350
3.9220	31.58480
3.9190	31.52690
3.9160	31.52670
3.9131	31.61430
3.9101	31.61260
3.9072	31.52770
3.9042	31.49640
3.9013	31.52220
3.8984	31.49590
3.8954	31.40340
3.8925	31.36230
3.8896	31.31100
3.8867	31.29070
3.8838	31.30240
3.8809	31.31640
3.8780	31.25400
3.8751	31.15100
3.8722	31.06370
3.8693	31.02190
3.8664	30.96420
3.8635	30.95740
3.8606	30.93820
3.8578	30.93200
3.8549	30.91540
3.8520	30.85090
3.8492	30.79410
3.8463	30.79470
3.8435	30.74950
3.8406	30.68890
3.8378	30.69180
3.8349	30.60240
3.8321	30.56880
3.8293	30.50690
3.8264	30.41000
3.8236	30.36580
3.8208	30.40080
3.8180	30.33460
3.8152	30.25330
3.8124	30.21260
3.8096	30.06310
3.8068	30.00420
3.8040	30.06670
3.8012	30.01400
3.7984	29.94210
3.7956	29.91860
3.7929	29.83970
3.7901	29.68760
3.7873	29.55230
3.7846	29.55610
3.7818	29.54090
3.7790	29.38260
3.7763	29.28010
3.7735	29.16190
3.7708	29.02250
3.7681	28.91510
3.7653	28.92920
3.7626	28.80410
3.7599	28.65430
3.7571	28.57390
3.7544	28.56990
3.7517	28.54650
3.7490	28.39580
3.7463	28.25900
3.7436	28.19840
3.7409	28.08670
3.7382	27.95190
3.7355	27.86440
3.7328	27.87010
3.7301	27.79550
3.7274	27.64520
3.7247	27.46470
3.7221	27.33320
3.7194	27.30260
3.7167	27.25280
3.7141	27.20750
3.7114	27.07880
3.7088	26.92760
3.7061	26.85790
3.7035	26.85780
3.7008	26.83140
3.6982	26.69190
3.6955	26.50350
3.6929	26.48590
3.6903	26.46860
3.6877	26.39260
3.6850	26.29260
3.6824	26.22050
3.6798	26.12440
3.6772	26.00700
3.6746	25.94230
3.6720	25.81290
3.6694	25.69830
3.6668	25.56510
3.6642	25.48130
3.6616	25.52640
3.6590	25.50320
3.6564	25.33800
3.6539	25.19810
3.6513	25.09500
3.6487	24.99070
3.6462	24.95730
3.6436	24.89260
3.6410	24.72910
3.6385	24.50760
3.6359	24.40720
3.6334	24.40130
3.6308	24.35740
3.6283	24.26070
3.6258	24.13690
3.6232	24.02180
3.6207	23.89210
3.6182	23.68970
3.6156	23.56280
3.6131	23.49410
3.6106	23.46160
3.6081	23.36740
3.6056	23.15750
3.6031	22.97070
3.6006	22.90690
3.5981	22.79650
3.5956	22.78140
3.5931	22.68330
3.5906	22.46670
3.5881	22.34350
3.5856	22.21950
3.5832	22.13190
3.5807	22.03800
3.5782	21.81570
3.5758	21.70490
3.5733	21.63080
3.5708	21.52820
3.5684	21.33820
3.5659	21.22100
3.5635	21.13420
3.5610	21.02220
3.5586	20.91890
3.5561	20.77300
3.5537	20.61720
3.5513	20.54310
3.5488	20.44430
3.5464	20.29590
3.5440	20.17870
3.5416	19.98990
3.5391	19.80710
3.5367	19.67570
3.5343	19.64300
3.5319	19.60340
3.5295	19.44650
3.5271	19.25830
3.5247	19.10520
3.5223	18.89520
3.5199	18.66900
3.5175	18.52650
3.5151	18.33870
3.5128	18.14350
3.5104	17.94180
3.5080	17.73280
3.5056	17.49460
3.5033	17.38220
3.5009	17.37020
3.4985	17.42180
3.4962	17.42850
3.4938	17.31830
3.4915	17.22230
3.4891	17.12950
3.4868	17.08210
3.4844	17.06400
3.4821	16.91010
3.4798	16.66420
3.4774	16.54290
3.4751	16.47270
3.4728	16.44390
3.4704	16.39100
3.4681	16.21800
3.4658	16.07880
3.4635	16.05300
3.4612	15.99660
3.4589	15.87050
3.4566	15.73890
3.4543	15.43820
3.4520	15.20930
3.4497	15.15830
3.4474	15.14720
3.4451	15.07930
3.4428	15.00780
3.4405	14.83840
3.4382	14.63400
3.4359	14.48220
3.4337	14.23610
3.4314	14.02500
3.4291	13.94010
3.4269	13.73860
3.4246	13.55850
3.4223	13.45080
3.4201	13.31880
3.4178	13.19030
3.4156	13.07980
3.4133	12.98810
3.4111	12.90050
3.4088	12.92810
3.4066	12.91860
3.4044	12.76740
3.4021	12.70280
3.3999	12.65580
3.3977	12.60700
3.3954	12.58020
3.3932	12.54200
3.3910	12.46460
3.3888	12.40550
3.3866	12.27850
3.3844	12.14480
3.3822	12.01280
3.3799	11.84760
3.3777	11.75810
3.3755	11.66550
3.3734	11.67390
3.3712	11.60410
3.3690	11.47260
3.3668	11.41750
3.3646	11.34880
3.3624	11.27550
3.3602	11.26130
3.3581	11.18150
3.3559	11.18150
3.3537	11.09240
3.3515	10.93740
3.3494	10.86260
3.3472	10.76600
3.3451	10.71830
3.3429	10.67140
3.3407	10.51750
3.3386	10.40920
3.3364	10.33290
3.3343	10.22100
3.3322	10.11320
3.3300	10.05690
3.3279	9.90062
3.3257	9.74071
3.3236	9.66929
3.3215	9.64964
3.3194	9.53008
3.3172	9.42057
3.3151	9.36234
3.3130	9.32129
3.3109	9.33972
3.3088	9.25208
3.3067	9.11492
3.3046	9.00613
3.3024	8.82202
3.3003	8.76118
3.2982	8.73351
3.2961	8.67980
3.2941	8.58106
3.2920	8.39557
3.2899	8.26967
3.2878	8.26807
3.2857	8.32442
3.2836	8.20409
3.2815	8.04711
3.2795	7.94642
3.2774	7.84114
3.2753	7.83254
3.2733	7.74120
3.2712	7.57621
3.2691	7.59533
3.2671	7.55798
3.2650	7.44601
3.2630	7.37314
3.2609	7.26250
3.2589	7.17847
3.2568	7.13203
3.2548	7.04454
3.2527	6.94015
3.2507	6.89257
3.2486	6.88838
3.2466	6.84827
3.2446	6.74903
3.2426	6.63338
3.2405	6.58074
3.2385	6.46671
3.2365	6.40890
3.2345	6.39849
3.2324	6.25687
3.2304	6.23312
3.2284	6.17466
3.2264	6.10711
3.2244	6.05443
3.2224	5.94418
3.2204	5.89446
3.2184	5.83504
3.2164	5.86243
3.2144	5.79407
3.2124	5.66862
3.2104	5.57565
3.2084	5.58335
3.2065	5.59806
3.2045	5.46319
3.2025	5.45440
3.2005	5.34133
3.1985	5.25939
3.1966	5.19365
3.1946	5.18439
3.1926	5.03481
3.1907	4.99134
3.1887	5.06766
3.1867	4.91821
3.1848	4.80140
3.1828	4.78851
3.1809	4.69925
3.1789	4.68257
3.1770	4.66500
3.1750	4.60933
3.1731	4.61894
3.1712	4.55917
3.1692	4.47697
3.1673	4.48532
3.1653	4.54445
3.1634	4.51647
3.1615	4.47681
3.1596	4.39571
3.1576	4.20851
3.1557	4.17122
3.1538	4.21325
3.1519	4.12810
3.1500	4.10395
3.1481	4.10202
3.1461	3.98858
3.1442	3.88517
3.1423	3.89514
3.1404	3.91078
3.1385	3.79213
3.1366	3.72354
3.1347	3.81028
3.1328	3.84651
3.1309	3.75058
3.1291	3.67391
3.1272	3.62865
3.1253	3.50716
3.1234	3.37092
3.1215	3.41706
3.1196	3.54728
3.1178	3.58331
3.1159	3.51078
3.1140	3.38288
3.1121	3.28429
3.1103	3.26793
3.1084	3.29434
3.1066	3.27100
3.1047	3.19858
3.1028	3.17006
3.1010	3.05313
3.0991	3.10071
3.0973	3.24805
3.0954	3.34098
3.0936	3.28521
3.0917	3.17776
3.0899	3.17966
3.0881	3.11393
3.0862	3.11291
3.0844	3.15698
3.0825	3.18093
3.0807	3.11541
3.0789	3.03889
3.0771	2.93836
3.0752	2.94956
3.0734	2.89592
3.0716	2.81050
3.0698	2.94617
3.0680	3.01447
3.0661	2.94504
3.0643	2.92725
3.0625	2.91351
3.0607	2.91441
3.0589	2.95846
3.0571	3.04358
3.0553	2.98766
3.0535	2.84937
3.0517	2.74325
3.0499	2.70405
3.0481	2.77758
3.0463	2.76527
3.0445	2.70658
3.0427	2.71307
3.0410	2.70003
3.0392	2.70040
3.0374	2.76238
3.0356	2.85552
3.0338	2.78738
3.0321	2.79383
3.0303	2.79228
3.0285	2.71630
3.0268	2.72078
3.0250	2.70105
3.0232	2.68582
3.0215	2.70251
3.0197	2.64306
3.0180	2.61692
3.0162	2.68279
3.0144	2.76085
3.0127	2.75244
3.0109	2.73156
3.0092	2.70906
3.0074	2.65158
3.0057	2.65171
3.0040	2.64570
3.0022	2.67836
3.0005	2.72528
2.9988	2.59680
2.9970	2.47105
2.9953	2.38382
2.9936	2.41122
2.9918	2.54143
2.9901	2.51794
2.9884	2.41856
2.9867	2.40239
2.9849	2.48737
2.9832	2.48032
2.9815	2.51501
2.9798	2.57571
2.9781	2.52703
2.9764	2.41049
2.9747	2.34448
2.9730	2.34965
2.9713	2.28093
2.9696	2.38223
2.9679	2.41314
2.9662	2.34243
2.9645	2.39007
2.9628	2.46127
2.9611	2.38818
2.9594	2.34812
2.9577	2.30555
2.9560	2.17965
2.9543	2.12291
2.9526	2.23691
2.9510	2.33279
2.9493	2.23866
2.9476	2.27534
2.9459	2.30246
2.9443	2.28661
2.9426	2.26751
2.9409	2.27348
2.9393	2.21529
2.9376	2.24828
2.9359	2.20876
2.9343	2.14338
2.9326	2.10765
2.9309	2.26204
2.9293	2.35879
2.9276	2.30752
2.9260	2.25991
2.9243	2.21052
2.9227	2.20823
2.9210	2.26789
2.9194	2.23524
2.9178	2.26940
2.9161	2.29511
2.9145	2.24967
2.9128	2.35252
2.9112	2.39279
2.9096	2.36998
2.9079	2.30648
2.9063	2.24337
2.9047	2.18373
2.9030	2.23831
2.9014	2.31118
2.8998	2.12398
2.8982	1.98756
2.8966	2.27937
2.8949	2.47546
2.8933	2.37282
2.8917	2.40661
2.8901	2.53807
2.8885	2.35599
2.8869	2.20885
2.8853	2.31828
2.8837	2.45223
2.8821	2.39736
2.8805	2.35340
2.8789	2.27138
2.8773	2.36820
2.8757	2.60693
2.8741	2.55909
2.8725	2.43655
2.8709	2.39419
2.8693	2.42356
2.8677	2.41411
2.8661	2.43607
2.8646	2.37051
2.8630	2.30556
2.8614	2.41746
2.8598	2.59300
2.8582	2.76198
2.8567	2.72982
2.8551	2.69023
2.8535	2.71753
2.8519	2.73300
2.8504	2.74183
2.8488	2.65382
2.8472	2.67475
2.8457	2.62520
2.8441	2.45651
2.8426	2.55585
2.8410	2.67656
2.8395	2.64214
2.8379	2.58468
2.8363	2.62722
2.8348	2.63551
2.8332	2.66172
2.8317	2.74505
2.8302	2.53906
2.8286	2.48577
2.8271	2.62699
2.8255	2.57641
2.8240	2.46958
2.8225	2.49006
2.8209	2.41857
2.8194	2.44732
2.8178	2.69604
2.8163	2.72873
2.8148	2.49420
2.8133	2.54341
2.8117	2.58447
2.8102	2.47562
2.8087	2.46796
2.8072	2.34904
2.8057	2.28401
2.8041	2.56290
2.8026	2.87396
2.8011	2.93801
2.7996	2.55280
2.7981	2.15815
2.7966	2.08821
2.7951	2.11877
2.7936	2.12604
2.7921	2.25844
2.7906	2.47686
2.7890	2.46869
2.7875	2.56262
2.7861	2.59730
2.7846	2.24982
2.7831	2.00570
2.7816	1.96998
2.7801	2.06850
2.7786	2.12251
2.7771	2.01158
2.7756	2.00914
2.7741	2.07944
2.7726	1.97071
2.7712	1.88638
2.7697	1.91261
2.7682	1.93067
2.7667	1.82409
2.7652	1.66051
2.7638	1.51395
2.7623	1.45600
2.7608	1.39673
2.7594	1.41158
2.7579	1.53238
2.7564	1.59608
2.7550	1.56013
2.7535	1.59850
2.7520	1.54922
2.7506	1.58037
2.7491	1.76831
2.7477	1.89930
2.7462	1.88999
2.7448	1.86656
2.7433	1.86148
2.7419	1.79352
2.7404	1.70364
2.7390	1.75329
2.7375	1.84545
2.7361	1.94396
2.7346	1.99367
2.7332	2.06198
2.7317	2.09800
2.7303	2.18262
2.7289	2.36096
2.7274	2.39944
2.7260	2.34303
2.7246	2.45108
2.7231	2.56419
2.7217	2.62901
2.7203	2.88387
2.7188	3.29288
2.7174	3.32625
2.7160	3.22674
2.7146	3.11688
2.7132	2.92811
2.7117	2.75264
2.7103	2.64750
2.7089	2.46750
2.7075	2.25914
2.7061	2.09280
2.7047	2.04094
2.7033	2.19516
2.7018	2.49376
2.7004	2.93782
2.6990	3.60349
2.6976	4.34447
2.6962	5.01657
2.6948	5.70284
2.6934	6.70540
2.6920	7.85059
2.6906	9.02859
2.6892	10.27500
2.6878	11.56720
2.6864	12.72370
2.6851	13.85270
2.6837	14.96530
2.6823	15.97240
2.6809	16.92440
2.6795	17.72540
2.6781	18.46310
2.6767	19.15380
2.6754	19.82780
2.6740	20.54400
2.6726	21.12180
2.6712	21.52200
2.6698	22.08210
2.6685	22.69550
2.6671	23.13060
2.6657	23.50880
2.6644	23.97640
2.6630	24.47620
2.6616	24.89120
2.6603	25.29510
2.6589	25.67520
2.6575	25.96310
2.6562	26.25990
2.6548	26.58010
2.6535	26.72600
2.6521	26.89650
2.6507	27.22980
2.6494	27.58620
2.6480	27.91250
2.6467	28.13090
2.6453	28.26990
2.6440	28.49590
2.6426	28.75150
2.6413	28.93130
2.6399	29.14580
2.6386	29.37670
2.6373	29.59540
2.6359	29.82610
2.6346	29.91110
2.6332	30.05480
2.6319	30.26480
2.6306	30.37470
2.6292	30.50590
2.6279	30.57920
2.6266	30.84610
2.6252	31.04410
2.6239	31.07400
2.6226	31.18750
2.6213	31.25290
2.6199	31.43960
2.6186	31.60610
2.6173	31.60690
2.6160	31.85220
2.6146	31.98630
2.6133	31.95630
2.6120	32.06440
2.6107	32.08210
2.6094	31.96520
2.6081	32.06840
2.6068	32.23320
2.6054	32.36240
2.6041	32.51620
2.6028	32.63290
2.6015	32.64320
2.6002	32.64050
2.5989	32.75410
2.5976	32.82190
2.5963	32.78940
2.5950	32.62480
2.5937	32.71640
2.5924	33.11560
2.5911	33.30720
2.5898	33.26390
2.5885	33.32880
2.5872	33.49950
2.5860	33.53350
2.5847	33.30090
2.5834	33.31440
2.5821	33.50720
2.5808	33.61390
2.5795	33.65210
2.5782	33.65950
2.5770	33.79060
2.5757	33.90980
2.5744	33.85560
2.5731	33.78770
2.5718	33.92770
2.5706	33.92310
2.5693	33.94220
2.5680	34.04820
2.5668	34.13760
2.5655	34.26630
2.5642	34.39560
2.5629	34.40010
2.5617	34.36240
2.5604	34.46460
2.5592	34.71440
2.5579	34.72700
2.5566	34.70640
2.5554	34.82920
2.5541	34.85760
2.5529	34.85560
2.5516	34.88940
2.5503	34.88600
2.5491	34.88380
2.5478	34.92360
2.5466	34.92150
2.5453	34.91370
2.5441	34.94400
2.5428	34.95660
2.5416	34.98130
2.5403	34.92510
2.5391	34.90540
2.5379	35.04460
2.5366	35.17770
2.5354	35.31810
2.5341	35.40020
2.5329	35.46710
2.5317	35.47800
2.5304	35.30830
2.5292	35.31340
2.5280	35.54820
2.5267	35.68660
2.5255	35.60570
2.5243	35.46330
2.5230	35.54320
2.5218	35.63860
2.5206	35.64270
2.5194	35.68680
2.5181	35.69380
2.5169	35.80170
2.5157	35.82550
2.5145	35.83170
2.5133	35.90310
2.5120	35.84770
2.5108	35.83610
2.5096	35.99120
2.5084	36.13280
2.5072	36.11380
2.5060	36.14770
2.5048	36.16770
2.5035	36.15480
2.5023	36.31660
2.5011	36.40880
2.4999	36.36250
2.4987	36.38740
2.4975	36.42500
2.4963	36.46710
2.4951	36.56810
2.4939	36.64100
2.4927	36.75990
2.4915	36.86780
2.4903	36.90090
2.4891	36.86330
2.4879	36.89670
2.4867	37.06190
2.4855	37.23300
2.4844	37.33130
2.4832	37.40320
2.4820	37.46670
2.4808	37.52710
2.4796	37.63600
2.4784	37.79780
2.4772	37.85080
2.4760	37.77730
2.4749	37.94820
2.4737	38.13560
2.4725	38.21400
2.4713	38.25900
2.4701	38.24620
2.4690	38.23640
2.4678	38.30380
2.4666	38.40800
2.4655	38.43970
2.4643	38.60690
2.4631	38.65560
2.4619	38.72840
2.4608	38.85710
2.4596	38.97270
2.4584	39.08420
2.4573	39.23590
2.4561	39.26080
2.4549	39.23130
2.4538	39.33900
2.4526	39.30070
2.4515	39.28110
2.4503	39.39500
2.4491	39.44330
2.4480	39.47190
2.4468	39.56710
2.4457	39.71600
2.4445	39.82610
2.4434	39.77700
2.4422	39.70200
2.4411	39.89740
2.4399	40.19330
2.4388	40.31550
2.4376	40.39940
2.4365	40.53690
2.4353	40.65170
2.4342	40.74530
2.4331	40.85370
2.4319	41.10540
2.4308	41.27140
2.4296	41.41040
2.4285	41.53040
2.4274	41.49650
2.4262	41.57540
2.4251	41.86880
2.4240	42.14360
2.4228	42.16120
2.4217	42.17530
2.4206	42.23870
2.4194	42.38130
2.4183	42.43940
2.4172	42.55100
2.4161	42.60300
2.4149	42.64100
2.4138	42.83040
2.4127	42.95500
2.4116	42.95830
2.4104	43.12480
2.4093	43.24560
2.4082	43.18800
2.4071	43.14550
2.4060	43.25230
2.4048	43.38820
2.4037	43.36190
2.4026	43.35440
2.4015	43.42630
2.4004	43.52370
2.3993	43.62170
2.3982	43.66640
2.3971	43.65820
2.3960	43.58810
2.3948	43.58290
2.3937	43.60070
2.3926	43.54040
2.3915	43.60920
2.3904	43.60180
2.3893	43.61830
2.3882	43.66760
2.3871	43.59140
2.3860	43.59750
2.3849	43.62770
2.3838	43.50470
2.3827	43.48600
2.3816	43.70900
2.3806	43.96130
2.3795	43.99900
2.3784	44.06530
2.3773	44.20220
2.3762	44.29850
2.3751	44.40830
2.3740	44.47820
2.3729	44.52550
2.3718	44.61270
2.3708	44.75140
2.3697	44.96570
2.3686	45.03280
2.3675	45.02680
2.3664	45.08950
2.3653	45.11280
2.3643	45.18850
2.3632	45.26720
2.3621	45.32150
2.3610	45.34520
2.3600	45.30960
2.3589	45.37330
2.3578	45.45120
2.3567	45.49750
2.3557	45.67610
2.3546	45.84130
2.3535	45.90140
2.3525	45.91920
2.3514	45.95090
2.3503	46.12190
2.3493	46.16920
2.3482	46.21650
2.3471	46.40910
2.3461	46.54340
2.3450	46.57100
2.3440	46.63610
2.3429	46.77640
2.3418	46.87860
2.3408	46.97820
2.3397	47.12780
2.3387	47.24480
2.3376	47.30700
2.3366	47.28620
2.3355	47.41190
2.3345	47.65570
2.3334	47.67360
2.3324	47.71230
2.3313	47.84820
2.3303	47.85960
2.3292	47.88580
2.3282	47.90720
2.3271	48.09580
2.3261	48.27580
2.3250	48.40400
2.3240	48.43940
2.3230	48.45140
2.3219	48.52370
2.3209	48.58430
2.3198	48.57320
2.3188	48.73400
2.3178	48.96950
2.3167	49.07660
2.3157	49.02530
2.3147	49.19610
2.3136	49.42360
2.3126	49.40170
2.3116	49.32840
2.3105	49.38710
2.3095	49.47960
2.3085	49.65410
2.3075	49.77340
2.3064	49.83610
2.3054	49.84130
2.3044	49.89070
2.3034	50.02170
2.3023	50.14580
2.3013	50.26210
2.3003	50.35170
2.2993	50.45060
2.2982	50.42740
2.2972	50.36740
2.2962	50.54580
2.2952	50.68550
2.2942	50.62190
2.2932	50.58690
2.2922	50.65500
2.2911	50.70750
2.2901	50.89240
2.2891	50.96820
2.2881	50.85040
2.2871	50.88190
2.2861	50.90430
2.2851	50.99690
2.2841	51.14250
2.2831	51.22130
2.2821	51.35830
2.2811	51.39730
2.2801	51.42250
2.2791	51.40770
2.2781	51.40540
2.2771	51.43290
2.2761	51.49840
2.2751	51.52760
2.2741	51.59760
2.2731	51.65900
2.2721	51.60250
2.2711	51.59870
2.2701	51.66760
2.2691	51.66970
2.2681	51.70260
2.2671	51.77720
2.2661	51.71880
2.2651	51.65080
2.2641	51.62940
2.2631	51.63590
2.2621	51.58290
2.2612	51.60680
2.2602	51.57760
2.2592	51.43210
2.2582	51.36030
2.2572	51.30480
2.2562	51.17490
2.2553	51.06510
2.2543	51.00510
2.2533	50.96420
2.2523	50.96120
2.2513	50.96060
2.2504	50.76470
2.2494	50.67990
2.2484	50.85690
2.2474	50.88610
2.2465	50.79740
2.2455	50.75890
2.2445	50.71170
2.2436	50.66120
2.2426	50.56910
2.2416	50.48040
2.2406	50.34390
2.2397	50.33180
2.2387	50.40700
2.2377	50.35030
2.2368	50.41500
2.2358	50.35690
2.2348	50.23050
2.2339	50.27900
2.2329	50.35640
2.2320	50.39960
2.2310	50.41660
2.2300	50.33700
2.2291	50.28330
2.2281	50.16240
2.2272	50.06420
2.2262	49.95530
2.2253	49.79690
2.2243	49.68560
2.2233	49.58910
2.2224	49.45880
2.2214	49.30780
2.2205	49.16280
2.2195	49.03480
2.2186	48.91490
2.2176	48.70010
2.2167	48.32100
2.2157	47.96070
2.2148	47.65280
2.2139	47.02500
2.2129	46.28620
2.2120	45.58080
2.2110	44.98810
2.2101	44.38910
2.2091	44.05190
2.2082	44.24990
2.2073	44.72270
2.2063	45.14980
2.2054	45.54310
2.2044	45.99890
2.2035	46.58130
2.2026	47.11510
2.2016	47.53620
2.2007	47.75050
2.1998	47.90790
2.1988	48.06870
2.1979	48.17670
2.1970	48.32640
2.1960	48.49050
2.1951	48.62040
2.1942	48.78700
2.1933	49.01990
2.1923	49.16980
2.1914	49.31520
2.1905	49.53270
2.1895	49.54720
2.1886	49.54750
2.1877	49.87160
2.1868	50.07480
2.1859	50.13250
2.1849	50.26490
2.1840	50.31110
2.1831	50.32110
2.1822	50.50530
2.1813	50.68340
2.1803	50.79810
2.1794	50.74040
2.1785	50.89950
2.1776	51.03840
2.1767	51.03140
2.1758	51.20490
2.1749	51.45050
2.1739	51.41350
2.1730	51.41360
2.1721	51.61030
2.1712	51.55580
2.1703	51.39420
2.1694	51.36350
2.1685	51.58270
2.1676	51.81620
2.1667	51.78490
2.1658	51.60680
2.1649	51.81940
2.1640	52.08470
2.1631	51.99290
2.1622	51.90130
2.1613	51.96410
2.1604	51.99060
2.1595	52.22280
2.1586	52.37540
2.1577	52.60060
2.1568	52.93700
2.1559	53.10660
2.1550	53.10920
2.1541	53.22470
2.1532	53.40030
2.1523	53.48070
2.1514	53.59890
2.1505	53.88110
2.1496	53.91040
2.1487	53.92560
2.1478	54.21790
2.1469	54.57950
2.1460	54.85520
2.1452	54.93980
2.1443	54.90940
2.1434	55.01490
2.1425	55.11590
2.1416	55.16150
2.1407	55.38140
2.1398	55.49970
2.1390	55.61010
2.1381	55.68690
2.1372	55.64800
2.1363	55.78980
2.1354	55.91820
2.1346	55.76820
2.1337	55.80750
2.1328	55.79770
2.1319	55.72810
2.1311	55.92760
2.1302	56.08040
2.1293	56.00610
2.1284	56.01540
2.1276	55.96580
2.1267	55.94230
2.1258	55.93190
2.1249	55.88050
2.1241	55.98780
2.1232	56.02500
2.1223	55.97250
2.1215	56.00090
2.1206	56.20030
2.1197	56.09120
2.1189	55.97040
2.1180	56.04490
2.1171	55.99190
2.1163	55.87720
2.1154	55.95290
2.1145	56.12160
2.1137	56.03360
2.1128	55.95280
2.1120	55.98650
2.1111	56.07260
2.1102	55.97000
2.1094	55.85060
2.1085	55.91370
2.1077	55.98970
2.1068	55.92510
2.1059	55.91120
2.1051	56.05680
2.1042	56.18660
2.1034	56.08140
2.1025	55.87630
2.1017	55.95360
2.1008	56.17450
2.1000	56.19470
2.0991	55.99330
2.0983	55.84780
2.0974	55.92380
2.0966	56.04120
2.0957	56.18370
2.0949	56.03930
2.0940	56.07740
2.0932	56.10330
2.0924	56.06650
2.0915	56.15000
2.0907	56.09510
2.0898	56.01210
2.0890	55.97120
2.0881	56.00000
2.0873	55.83720
2.0865	55.68560
2.0856	55.89940
2.0848	55.94800
2.0839	55.93880
2.0831	56.16770
2.0823	56.22050
2.0814	56.20060
2.0806	56.00780
2.0798	56.01170
2.0789	56.03960
2.0781	55.90710
2.0773	55.87860
2.0764	55.91400
2.0756	55.88510
2.0748	55.83340
2.0739	55.74740
2.0731	55.80240
2.0723	55.92690
2.0715	55.98830
2.0706	55.97590
2.0698	55.83540
2.0690	55.80930
2.0681	55.90470
2.0673	55.83870
2.0665	55.66260
2.0657	55.63380
2.0649	55.95250
2.0640	56.02190
2.0632	55.67310
2.0624	55.48850
2.0616	55.67420
2.0607	55.61700
2.0599	55.47190
2.0591	55.56660
2.0583	55.58940
2.0575	55.46990
2.0567	55.27120
2.0558	55.04590
2.0550	55.13930
2.0542	55.37740
2.0534	55.41300
2.0526	55.68360
2.0518	55.67880
2.0510	55.43080
2.0502	55.28720
2.0493	55.24750
2.0485	55.37510
2.0477	55.40520
2.0469	55.28420
2.0461	55.28790
2.0453	55.31700
2.0445	55.37430
2.0437	55.09030
2.0429	54.97600
2.0421	54.94190
2.0413	54.80160
2.0405	54.66490
2.0397	54.88540
2.0389	54.93780
2.0381	54.65380
2.0373	54.54040
2.0365	54.63370
2.0357	54.71080
2.0349	54.66730
2.0341	54.71320
2.0333	54.80850
2.0325	54.60190
2.0317	54.31910
2.0309	54.34100
2.0301	54.52660
2.0293	54.47010
2.0285	54.37400
2.0277	54.18820
2.0269	54.11330
2.0261	54.04990
2.0253	53.90620
2.0245	53.84530
2.0237	53.98680
2.0230	54.08810
2.0222	53.96400
2.0214	53.75060
2.0206	53.80600
2.0198	53.98500
2.0190	53.82700
2.0182	53.55820
2.0174	53.49840
2.0167	53.52530
2.0159	53.41120
2.0151	53.17340
2.0143	53.24520
2.0135	53.13540
2.0128	52.84990
2.0120	52.90110
2.0112	52.94010
2.0104	52.84700
2.0096	52.76970
2.0089	52.93270
2.0081	52.83040
2.0073	52.57550
2.0065	52.56460
2.0057	52.51000
2.0050	52.46940
2.0042	52.38630
2.0034	52.30520
2.0026	52.27510
2.0019	52.27000
2.0011	52.17170
2.0003	51.89810

