Name: Quartz SiO_2
Type: Mineral
Class: Silicates
Subclass: Tectosilicates
Particle Size: 45-125um
Sample No.: TS-1A
Owner: JPL
Wavelength range: IR
Origin: USA, Arkansas, Montgomery County, Mount Ida
Collected by Burminco
Description:  Rock crystal. 





Measurement: Hemispherical reflectance
First Column: X
Second Column: Y
X Units:  Wavelength (micrometers)
Y Units:  Reflectance (percent)
First X Value: 15.3853
Last X Value: 2.00032
Number of X Values: 2256
Additional information: ts01aa.txt
 
15.3853	7.73174
15.3397	7.4512
15.2945	7.12677
15.2495	7.23507
15.2048	7.22827
15.1603	6.96222
15.1161	6.65183
15.0722	6.3924
15.0285	6.37317
14.9851	6.52601
14.9419	6.59462
14.8989	6.39509
14.8563	6.07139
14.8138	5.91359
14.7716	5.76842
14.7296	5.42411
14.6879	4.93786
14.6464	4.72491
14.6052	4.60906
14.5641	4.44269
14.5233	4.60453
14.4828	4.80221
14.4424	4.81459
14.4023	4.77573
14.3624	3.99475
14.3227	3.15442
14.2833	2.89299
14.244	3.08974
14.205	3.46613
14.1662	3.72075
14.1276	4.12365
14.0892	4.64333
14.051	4.75412
14.0131	4.89219
13.9753	5.11191
13.9377	5.2894
13.9004	5.29011
13.8632	5.41438
13.8262	5.66431
13.7895	5.78124
13.7529	5.89963
13.7165	6.10397
13.6803	6.1617
13.6443	6.04736
13.6085	5.86911
13.5729	5.93431
13.5374	6.03242
13.5022	5.89343
13.4671	5.68569
13.4322	5.77965
13.3975	6.02953
13.363	6.0474
13.3286	5.95033
13.2944	6.06835
13.2604	6.07863
13.2266	6.07813
13.193	6.21065
13.1595	6.27118
13.1262	6.30925
13.093	6.45678
13.06	6.78935
13.0272	7.05918
12.9946	7.50299
12.9621	8.33487
12.9298	9.23872
12.8976	10.1829
12.8656	11.4076
12.8337	12.4842
12.8021	13.038
12.7705	12.8073
12.7391	11.8268
12.7079	10.4661
12.6769	8.98441
12.6459	8.06611
12.6152	8.09519
12.5845	8.99899
12.5541	10.0903
12.5238	11.01
12.4936	11.2778
12.4635	10.7901
12.4337	9.61495
12.4039	7.54238
12.3743	4.75865
12.3448	2.37587
12.3155	1.14285
12.2863	0.984941
12.2573	1.12449
12.2284	1.34116
12.1996	1.70478
12.171	1.87418
12.1425	2.01107
12.1141	2.25209
12.0859	2.48788
12.0578	2.79938
12.0298	3.02208
12.0019	3.28378
11.9742	3.47959
11.9466	3.5964
11.9192	3.85302
11.8918	4.04846
11.8646	4.20303
11.8375	4.34838
11.8106	4.4885
11.7837	4.58421
11.757	4.77765
11.7304	5.01546
11.7039	5.26583
11.6776	5.41927
11.6513	5.49096
11.6252	5.56867
11.5992	5.55172
11.5733	5.64828
11.5475	5.76577
11.5219	5.69977
11.4963	5.76967
11.4709	5.95724
11.4455	6.0476
11.4203	6.10793
11.3952	6.20554
11.3702	6.1964
11.3454	6.32417
11.3206	6.42479
11.2959	6.35282
11.2714	6.41605
11.2469	6.48377
11.2226	6.44635
11.1983	6.56099
11.1742	6.6738
11.1502	6.7407
11.1263	6.771
11.1024	6.83578
11.0787	6.99204
11.0551	6.94484
11.0316	6.93442
11.0081	7.00793
10.9848	7.15467
10.9616	7.14865
10.9385	7.1591
10.9154	7.22807
10.8925	7.16419
10.8697	7.13141
10.8469	7.30546
10.8243	7.40545
10.8017	7.36394
10.7793	7.27055
10.7569	7.36905
10.7346	7.52759
10.7125	7.4788
10.6904	7.26948
10.6684	7.21822
10.6465	7.28362
10.6247	7.29182
10.6029	7.28158
10.5813	7.37905
10.5597	7.43881
10.5383	7.38182
10.5169	7.4145
10.4956	7.50248
10.4744	7.58008
10.4533	7.67608
10.4323	7.69918
10.4113	7.70268
10.3904	7.74082
10.3697	7.73483
10.349	7.66387
10.3284	7.74058
10.3078	7.9183
10.2874	8.03261
10.267	8.12927
10.2467	8.05571
10.2265	8.03143
10.2064	8.1878
10.1863	8.27213
10.1663	8.32998
10.1464	8.48702
10.1266	8.65574
10.1069	8.69483
10.0872	8.84452
10.0676	9.02651
10.0481	9.08388
10.0287	9.26802
10.0093	9.49331
9.99005	9.5459
9.97084	9.6254
9.95169	9.69708
9.93263	9.80896
9.91364	10.0221
9.89472	10.3035
9.87587	10.5289
9.8571	10.7218
9.83839	10.9617
9.81976	11.28
9.80119	11.6042
9.78271	11.9719
9.76428	12.2148
9.74592	12.3975
9.72764	12.6545
9.70943	13.0316
9.69128	13.3848
9.6732	13.8434
9.65518	14.2757
9.63724	14.7633
9.61935	15.2382
9.60155	15.7613
9.5838	16.3348
9.56611	16.899
9.5485	17.5502
9.53094	18.4044
9.51345	19.425
9.49604	20.6412
9.47867	21.9712
9.46137	23.4606
9.44414	25.2667
9.42697	27.3529
9.40986	30.0003
9.39281	33.2608
9.37583	36.8223
9.35891	40.2801
9.34204	43.4201
9.32524	46.2861
9.3085	48.6444
9.29182	50.3234
9.27519	51.3771
9.25863	52.1057
9.24213	52.6917
9.22568	53.1595
9.2093	53.5593
9.19297	53.9246
9.17669	54.3828
9.16048	54.6789
9.14433	54.7861
9.12823	54.9837
9.11218	55.1814
9.0962	55.4054
9.08027	55.5179
9.06439	55.5237
9.04858	55.5982
9.03281	55.6557
9.0171	55.6719
9.00145	55.6391
8.98585	55.5746
8.9703	55.4787
8.9548	55.336
8.93937	55.2189
8.92398	55.1111
8.90865	54.8881
8.89337	54.6369
8.87814	54.3023
8.86296	53.962
8.84784	53.533
8.83277	53.0009
8.81774	52.3232
8.80277	51.5775
8.78786	50.9038
8.77298	50.2007
8.75816	49.3875
8.7434	48.7793
8.72868	47.9745
8.714	46.8316
8.69938	45.5056
8.68481	43.6842
8.67029	40.7221
8.65581	36.4673
8.64139	31.9615
8.62701	29.875
8.61268	31.9931
8.5984	36.7537
8.58416	41.3381
8.56997	44.5084
8.55583	46.5338
8.54174	47.8281
8.52769	48.5926
8.51368	49.0947
8.49973	49.3184
8.48582	49.2708
8.47195	49.2149
8.45813	49.132
8.44436	48.9797
8.43062	48.7757
8.41693	48.5019
8.4033	48.2802
8.3897	48.0839
8.37614	47.7705
8.36264	47.4543
8.34917	47.1327
8.33574	46.8146
8.32236	46.596
8.30903	46.4413
8.29573	46.3218
8.28248	46.1823
8.26927	46.0739
8.2561	45.811
8.24298	45.5054
8.2299	45.1323
8.21685	44.5855
8.20385	43.8795
8.19089	42.9997
8.17797	41.7363
8.16509	40.0756
8.15225	38.0346
8.13946	35.7454
8.1267	33.3432
8.11398	30.8512
8.10131	28.5991
8.08867	26.5653
8.07606	24.5465
8.0635	22.7021
8.05099	20.9943
8.0385	19.4123
8.02606	18.0086
8.01366	16.696
8.00129	15.498
7.98896	14.2945
7.97667	13.0842
7.96442	12.0441
7.9522	11.0333
7.94002	9.96389
7.92788	8.97282
7.91578	8.07569
7.90371	7.17903
7.89168	6.46137
7.87969	5.92747
7.86773	5.374
7.85581	4.90675
7.84392	4.50364
7.83207	4.03127
7.82026	3.587
7.80849	3.27439
7.79674	3.02073
7.78503	2.90477
7.77337	2.80722
7.76173	2.57939
7.75012	2.38324
7.73856	2.10872
7.72703	1.81723
7.71553	1.70699
7.70406	1.66792
7.69263	1.49386
7.68123	1.22024
7.66987	1.05458
7.65855	0.913481
7.64725	0.764866
7.63598	0.742274
7.62475	0.687618
7.61356	0.564025
7.60239	0.504224
7.59126	0.497442
7.58017	0.453701
7.5691	0.341592
7.55806	0.274856
7.54707	0.215779
7.5361	0.219746
7.52516	0.219331
7.51425	0.178598
7.50338	0.101472
7.49253	0.130295
7.48172	0.171765
7.47094	0.128552
7.46019	0.092455
7.44947	0.143903
7.43879	0.0414869
7.42813	-0.0280083
7.4175	0.0377023
7.4069	0.0531774
7.39634	0.0266789
7.3858	0.0702773
7.37529	0.0668919
7.36482	0.0179071
7.35437	-0.0850124
7.34396	-0.0274592
7.33357	0.0781985
7.32321	0.129184
7.31288	0.15139
7.30258	0.0968783
7.29231	0.0522611
7.28207	0.0394704
7.27185	0.0919638
7.26167	0.125231
7.25152	0.177768
7.24139	0.296953
7.23129	0.271351
7.22122	0.191076
7.21117	0.228048
7.20116	0.220758
7.19117	0.248065
7.18121	0.291894
7.17128	0.303414
7.16137	0.291048
7.1515	0.299236
7.14164	0.35887
7.13182	0.346667
7.12203	0.364827
7.11225	0.449058
7.10251	0.518776
7.0928	0.629693
7.08311	0.614823
7.07344	0.555155
7.06381	0.586458
7.0542	0.656406
7.04461	0.766918
7.03506	0.766662
7.02552	0.735877
7.01601	0.810077
7.00653	0.754961
6.99708	0.735375
6.98765	0.871253
6.97824	0.947683
6.96886	1.02568
6.95951	1.09357
6.95018	1.12976
6.94087	1.24666
6.9316	1.32719
6.92234	1.2997
6.91311	1.29301
6.90391	1.36016
6.89473	1.4367
6.88557	1.4082
6.87644	1.36935
6.86733	1.36942
6.85824	1.39325
6.84918	1.38491
6.84015	1.33376
6.83114	1.39033
6.82215	1.38662
6.81319	1.37912
6.80424	1.37987
6.79532	1.32889
6.78643	1.27296
6.77756	1.24403
6.76871	1.28861
6.75989	1.27369
6.75109	1.18255
6.74231	1.18782
6.73355	1.24919
6.72482	1.27344
6.71611	1.27076
6.70742	1.22607
6.69875	1.13728
6.69011	1.16675
6.68149	1.23499
6.67289	1.35258
6.66431	1.4749
6.65576	1.52106
6.64722	1.57877
6.63871	1.49783
6.63022	1.40289
6.62175	1.37477
6.61331	1.41421
6.60488	1.41625
6.59648	1.40618
6.5881	1.44864
6.57974	1.43302
6.5714	1.40275
6.56308	1.35986
6.55478	1.32461
6.54651	1.40788
6.53825	1.45056
6.53001	1.48222
6.5218	1.65662
6.51361	1.86044
6.50544	2.12843
6.49729	2.42464
6.48915	2.63666
6.48104	2.82967
6.47295	3.05767
6.46488	3.34816
6.45683	3.57327
6.4488	3.69952
6.44079	3.86308
6.4328	3.95673
6.42482	3.91579
6.41687	3.91646
6.40894	3.7768
6.40103	3.61576
6.39314	3.54836
6.38526	3.38437
6.37741	3.26256
6.36957	3.12851
6.36176	2.84415
6.35396	2.61821
6.34618	2.50113
6.33843	2.42362
6.33069	2.30867
6.32297	2.24155
6.31527	2.09804
6.30758	1.95998
6.29992	1.83239
6.29227	1.72404
6.28465	1.56054
6.27704	1.50566
6.26945	1.49051
6.26188	1.43817
6.25432	1.45402
6.24679	1.36446
6.23927	1.25915
6.23177	1.20917
6.22429	1.16163
6.21683	1.16775
6.20938	1.16117
6.20195	1.15925
6.19454	1.25678
6.18715	1.3683
6.17978	1.39502
6.17242	1.39275
6.16508	1.50465
6.15776	1.68235
6.15045	1.86735
6.14317	1.97646
6.1359	2.17391
6.12864	2.33861
6.12141	2.4545
6.11419	2.73347
6.10699	2.88452
6.0998	2.97622
6.09263	3.22994
6.08549	3.45894
6.07835	3.54774
6.07123	3.56395
6.06413	3.6205
6.05705	3.67243
6.04998	3.74879
6.04293	3.77294
6.0359	3.7683
6.02888	3.75274
6.02187	3.72871
6.01489	3.6524
6.00792	3.4454
6.00096	3.23805
5.99403	3.21191
5.98711	3.11305
5.9802	2.89428
5.97331	2.74154
5.96644	2.59324
5.95958	2.51383
5.95274	2.49105
5.94591	2.41919
5.9391	2.39625
5.9323	2.40528
5.92552	2.41491
5.91876	2.44467
5.91201	2.53333
5.90528	2.73164
5.89856	2.95091
5.89186	3.1502
5.88517	3.48987
5.8785	3.7528
5.87184	3.78209
5.8652	4.02418
5.85857	4.31163
5.85196	4.57178
5.84536	4.77715
5.83878	5.04065
5.83221	5.28758
5.82566	5.49114
5.81912	5.78472
5.81259	6.02717
5.80608	6.29241
5.79959	6.56107
5.79311	6.7777
5.78665	7.0627
5.78019	7.28483
5.77376	7.50678
5.76734	7.78987
5.76093	8.03344
5.75453	8.25085
5.74815	8.53085
5.74179	8.67839
5.73543	8.79016
5.7291	8.94144
5.72277	9.09468
5.71646	9.14686
5.71017	9.12343
5.70389	8.96522
5.69762	8.80948
5.69136	8.61263
5.68513	8.24016
5.6789	7.8014
5.67268	7.22173
5.66648	6.51843
5.6603	5.97705
5.65413	5.4031
5.64797	4.80158
5.64182	4.35677
5.63569	4.09344
5.62957	3.72788
5.62347	3.43195
5.61737	3.37729
5.61129	3.28407
5.60522	3.14326
5.59917	3.1032
5.59313	3.02615
5.5871	2.95116
5.58109	2.90908
5.57509	2.90295
5.5691	2.94941
5.56312	3.00104
5.55716	3.05323
5.55121	3.08691
5.54528	3.1205
5.53935	3.26435
5.53344	3.46714
5.52754	3.62274
5.52166	3.7577
5.51578	3.83907
5.50992	4.05017
5.50407	4.32986
5.49823	4.59887
5.49241	4.78389
5.4866	5.02169
5.4808	5.29833
5.47501	5.4085
5.46923	5.56754
5.46347	5.76217
5.45772	5.82363
5.45198	5.84724
5.44625	5.67325
5.44054	5.43543
5.43484	5.24771
5.42914	5.00107
5.42347	4.73834
5.4178	4.3666
5.41214	3.85305
5.4065	3.38591
5.40087	2.95972
5.39525	2.6449
5.38964	2.51614
5.38404	2.31892
5.37846	2.09762
5.37288	1.95289
5.36732	1.86164
5.36177	1.86585
5.35623	1.79157
5.35071	1.71538
5.34519	1.71702
5.33968	1.82033
5.33419	1.86365
5.32871	1.78944
5.32324	1.76032
5.31778	1.84068
5.31233	1.89158
5.30689	1.90826
5.30147	1.96162
5.29605	1.99816
5.29065	2.04436
5.28525	1.98828
5.27987	1.92356
5.2745	2.08472
5.26914	2.32847
5.26379	2.41571
5.25845	2.51575
5.25312	2.68445
5.24781	2.88368
5.2425	3.1449
5.23721	3.4891
5.23192	3.87511
5.22665	4.23482
5.22138	4.64046
5.21613	4.99536
5.21089	5.24827
5.20566	5.43295
5.20044	5.64223
5.19522	5.73449
5.19002	5.65673
5.18483	5.66359
5.17965	5.6445
5.17448	5.54797
5.16933	5.50162
5.16418	5.47775
5.15904	5.49698
5.15391	5.43078
5.14879	5.33039
5.14368	5.24468
5.13859	5.18302
5.1335	5.13597
5.12842	5.07989
5.12335	5.03519
5.1183	5.0757
5.11325	5.16481
5.10821	5.18878
5.10318	5.11347
5.09817	4.92797
5.09316	4.7397
5.08816	4.53748
5.08317	4.3746
5.07819	4.25916
5.07322	4.12204
5.06826	3.98713
5.06331	3.91198
5.05837	3.92452
5.05344	3.93191
5.04852	3.96869
5.04361	3.97593
5.03871	3.92285
5.03382	3.97218
5.02894	3.99862
5.02406	3.89112
5.0192	3.81327
5.01435	3.78733
5.0095	3.87931
5.00467	3.96489
4.99984	4.02027
4.99502	4.02518
4.99021	4.11071
4.98542	4.29522
4.98063	4.46861
4.97585	4.66755
4.97108	5.02197
4.96632	5.49735
4.96156	5.95922
4.95682	6.3701
4.95209	6.74457
4.94736	7.01064
4.94264	7.20756
4.93794	7.47016
4.93324	7.72792
4.92855	7.99173
4.92387	8.36366
4.9192	8.93444
4.91453	9.70772
4.90988	10.7015
4.90524	11.9051
4.9006	13.2891
4.89597	14.7911
4.89135	16.4769
4.88674	18.1013
4.88214	19.6742
4.87755	21.2267
4.87296	22.6742
4.86839	24.0285
4.86382	25.311
4.85926	26.4054
4.85471	27.4176
4.85017	28.3489
4.84564	29.2589
4.84111	30.1561
4.8366	30.9601
4.83209	31.7661
4.82759	32.5422
4.8231	33.2221
4.81862	33.9089
4.81415	34.5516
4.80968	35.1548
4.80522	35.7917
4.80077	36.4845
4.79633	37.1342
4.7919	37.6884
4.78747	38.1715
4.78306	38.7237
4.77865	39.174
4.77425	39.606
4.76986	40.0635
4.76547	40.5085
4.7611	40.9443
4.75673	41.3464
4.75237	41.6443
4.74802	42.0044
4.74367	42.2911
4.73934	42.4987
4.73501	42.7801
4.73069	42.9408
4.72638	42.954
4.72207	42.9401
4.71777	42.7418
4.71348	42.3332
4.7092	41.8023
4.70493	41.0306
4.70066	40.1031
4.69641	39.0295
4.69216	37.871
4.68791	36.9127
4.68368	36.4056
4.67945	36.5205
4.67523	37.0553
4.67102	37.9284
4.66682	38.9729
4.66262	40.0754
4.65843	41.1953
4.65425	42.2388
4.65007	43.2766
4.64591	44.2969
4.64175	45.2342
4.6376	46.214
4.63345	47.1499
4.62932	48.0163
4.62519	48.7963
4.62106	49.4061
4.61695	49.98
4.61284	50.4179
4.60874	50.7729
4.60465	51.1312
4.60056	51.4173
4.59648	51.6396
4.59241	51.7807
4.58835	51.8703
4.58429	51.9908
4.58024	52.0875
4.5762	52.0166
4.57216	51.8216
4.56814	51.5492
4.56411	51.3095
4.5601	50.9706
4.55609	50.4201
4.55209	49.7032
4.5481	48.8875
4.54411	47.9893
4.54013	47.0408
4.53616	45.949
4.5322	44.7867
4.52824	43.6074
4.52429	42.3442
4.52034	40.9717
4.51641	39.5872
4.51247	38.1399
4.50855	36.752
4.50463	35.528
4.50072	34.4303
4.49682	33.4569
4.49292	32.8282
4.48903	32.4435
4.48515	32.1285
4.48127	31.7816
4.4774	31.3917
4.47354	31.1448
4.46968	30.9522
4.46584	30.9341
4.46199	31.2087
4.45815	31.6552
4.45432	32.2996
4.4505	32.8985
4.44668	33.3669
4.44287	33.8212
4.43907	34.1315
4.43527	34.3411
4.43148	34.6659
4.4277	35.0838
4.42392	35.6003
4.42015	36.1693
4.41638	36.7032
4.41262	37.2384
4.40887	37.7868
4.40513	38.3494
4.40139	39.0254
4.39765	39.7077
4.39393	40.4527
4.39021	41.2491
4.38649	42.0367
4.38278	42.8337
4.37908	43.6774
4.37539	44.5212
4.3717	45.3542
4.36801	46.156
4.36434	46.9846
4.36067	47.7244
4.357	48.4395
4.35335	49.1002
4.34969	49.6534
4.34605	50.156
4.34241	50.6462
4.33877	51.0179
4.33514	51.269
4.33152	51.5147
4.32791	51.7326
4.3243	51.8956
4.32069	51.9089
4.3171	51.724
4.31351	51.5631
4.30992	51.4526
4.30634	51.3086
4.30277	51.1447
4.2992	50.9429
4.29564	50.8009
4.29208	50.847
4.28853	50.9712
4.28499	51.1068
4.28145	51.3043
4.27792	51.6561
4.27439	52.0398
4.27087	52.3961
4.26735	52.8016
4.26384	53.2062
4.26034	53.5447
4.25684	53.7574
4.25335	53.8045
4.24986	53.7448
4.24638	53.5907
4.24291	53.4144
4.23944	53.25
4.23598	53.0968
4.23252	53.0647
4.22906	53.1717
4.22562	53.2178
4.22218	53.3281
4.21874	53.459
4.21531	53.4701
4.21189	53.4413
4.20847	53.4012
4.20506	53.3125
4.20165	53.2655
4.19825	53.3082
4.19485	53.3853
4.19146	53.572
4.18807	53.8458
4.18469	54.1299
4.18132	54.4355
4.17795	54.6821
4.17458	55.0167
4.17123	55.3218
4.16787	55.5213
4.16453	55.7217
4.16118	55.9735
4.15785	56.2159
4.15451	56.4204
4.15119	56.6776
4.14787	56.9088
4.14455	57.1447
4.14124	57.4097
4.13794	57.6814
4.13464	57.9232
4.13134	58.1651
4.12805	58.4002
4.12477	58.698
4.12149	59.0758
4.11822	59.4375
4.11495	59.76
4.11168	60.0685
4.10843	60.4318
4.10517	60.7534
4.10192	61.0869
4.09868	61.4603
4.09545	61.7936
4.09221	62.0731
4.08899	62.4072
4.08576	62.6952
4.08255	63.0066
4.07933	63.2645
4.07613	63.4522
4.07292	63.6006
4.06973	63.7523
4.06654	63.9087
4.06335	64.0491
4.06017	64.0838
4.05699	64.0854
4.05382	64.096
4.05065	64.1073
4.04749	64.0745
4.04433	64.0311
4.04118	63.9864
4.03803	63.8703
4.03489	63.7474
4.03175	63.6603
4.02862	63.5849
4.02549	63.5799
4.02237	63.5475
4.01925	63.5015
4.01614	63.4456
4.01303	63.4118
4.00993	63.4147
4.00683	63.4199
4.00373	63.4965
4.00064	63.6083
3.99756	63.6951
3.99448	63.7894
3.9914	63.9301
3.98833	64.0853
3.98527	64.2653
3.98221	64.4085
3.97915	64.564
3.9761	64.82
3.97305	65.0048
3.97001	65.2202
3.96697	65.4431
3.96394	65.7005
3.96091	66.0049
3.95789	66.2415
3.95487	66.3514
3.95186	66.555
3.94885	66.8254
3.94584	67.0987
3.94284	67.348
3.93984	67.5605
3.93685	67.7436
3.93386	67.9065
3.93088	68.0153
3.9279	68.0875
3.92493	68.1299
3.92196	68.1861
3.919	68.2381
3.91604	68.2562
3.91308	68.2382
3.91013	68.182
3.90718	68.0819
3.90424	67.9723
3.9013	67.8702
3.89837	67.7119
3.89544	67.5283
3.89252	67.3516
3.8896	67.2095
3.88668	67.0027
3.88377	66.8438
3.88086	66.6828
3.87796	66.494
3.87506	66.4004
3.87217	66.2622
3.86928	66.0634
3.86639	65.8673
3.86351	65.758
3.86064	65.6503
3.85776	65.6464
3.8549	65.6785
3.85203	65.6844
3.84917	65.6718
3.84631	65.693
3.84346	65.7149
3.84062	65.7508
3.83777	65.8786
3.83494	66.0358
3.8321	66.1618
3.82927	66.2415
3.82644	66.3341
3.82362	66.5562
3.82081	66.7142
3.81799	66.7795
3.81518	66.8655
3.81238	66.9474
3.80958	67.0191
3.80678	67.1276
3.80399	67.1424
3.8012	67.1733
3.79841	67.238
3.79563	67.2583
3.79286	67.1477
3.79008	67.0013
3.78731	66.9053
3.78455	66.8566
3.78179	66.7476
3.77903	66.636
3.77628	66.4822
3.77353	66.3207
3.77079	66.1112
3.76805	65.9312
3.76531	65.7782
3.76258	65.688
3.75985	65.5302
3.75713	65.367
3.7544	65.2471
3.75169	65.2001
3.74898	65.1777
3.74627	65.1381
3.74356	65.051
3.74086	65.0953
3.73816	65.1433
3.73547	65.1791
3.73278	65.2394
3.7301	65.3442
3.72741	65.5147
3.72474	65.6821
3.72206	65.8534
3.71939	66.0368
3.71673	66.2449
3.71406	66.527
3.71141	66.775
3.70875	67.0898
3.7061	67.4084
3.70345	67.7345
3.70081	68.1179
3.69817	68.4762
3.69553	68.8375
3.6929	69.204
3.69027	69.4847
3.68765	69.786
3.68503	70.1141
3.68241	70.4674
3.6798	70.799
3.67719	71.148
3.67458	71.4635
3.67198	71.705
3.66938	71.964
3.66678	72.2406
3.66419	72.4825
3.66161	72.7178
3.65902	72.8854
3.65644	73.069
3.65387	73.1822
3.65129	73.3169
3.64872	73.5059
3.64616	73.6083
3.64359	73.7047
3.64103	73.7742
3.63848	73.7569
3.63593	73.7748
3.63338	73.8777
3.63084	73.9522
3.6283	73.8849
3.62576	73.8719
3.62322	73.9711
3.62069	74.0145
3.61817	74.0701
3.61564	74.1672
3.61312	74.161
3.61061	74.1531
3.6081	74.2345
3.60559	74.2933
3.60308	74.2987
3.60058	74.3135
3.59808	74.4202
3.59558	74.5587
3.59309	74.7034
3.59061	74.7793
3.58812	74.8563
3.58564	74.9389
3.58316	74.9565
3.58069	75.0498
3.57822	75.2377
3.57575	75.4116
3.57328	75.522
3.57082	75.6461
3.56836	75.7296
3.56591	75.8564
3.56346	76.0158
3.56101	76.1153
3.55857	76.2725
3.55613	76.4677
3.55369	76.5564
3.55126	76.669
3.54883	76.8047
3.5464	76.9707
3.54397	77.1899
3.54155	77.3284
3.53914	77.4128
3.53672	77.5394
3.53431	77.7135
3.5319	77.8145
3.5295	77.9675
3.5271	78.1576
3.5247	78.26
3.52231	78.3276
3.51991	78.3823
3.51753	78.4667
3.51514	78.5203
3.51276	78.5942
3.51038	78.5498
3.50801	78.4232
3.50563	78.4028
3.50327	78.4716
3.5009	78.4813
3.49854	78.5302
3.49618	78.6435
3.49382	78.8783
3.49147	79.0649
3.48912	79.2079
3.48677	79.3874
3.48443	79.5835
3.48209	79.6542
3.47975	79.6757
3.47742	79.7996
3.47509	79.8293
3.47276	79.8366
3.47044	79.953
3.46812	80.0813
3.4658	80.2086
3.46348	80.2894
3.46117	80.3738
3.45886	80.4233
3.45656	80.3177
3.45425	80.2614
3.45195	80.3058
3.44966	80.3497
3.44736	80.3306
3.44507	80.2488
3.44279	80.1628
3.4405	80.1154
3.43822	80.1011
3.43594	80.0105
3.43367	79.8731
3.43139	79.7608
3.42912	79.6402
3.42686	79.4576
3.42459	79.2206
3.42233	79.0127
3.42007	78.8732
3.41782	78.8065
3.41557	78.7283
3.41332	78.7118
3.41108	78.8193
3.40883	78.9535
3.40659	78.9663
3.40435	79.0188
3.40212	79.1977
3.39989	79.3489
3.39766	79.437
3.39544	79.5491
3.39322	79.6882
3.391	79.7514
3.38878	79.7856
3.38657	79.7597
3.38436	79.7304
3.38215	79.7239
3.37994	79.5681
3.37774	79.4688
3.37554	79.4397
3.37335	79.452
3.37115	79.5148
3.36896	79.7479
3.36678	79.9442
3.36459	80.1328
3.36241	80.4075
3.36023	80.5439
3.35805	80.6332
3.35588	80.7077
3.35371	80.75
3.35154	80.8703
3.34938	80.9853
3.34721	81.027
3.34505	81.1217
3.3429	81.1587
3.34074	81.2259
3.33859	81.2739
3.33644	81.2467
3.3343	81.1911
3.33215	81.1813
3.33001	81.2571
3.32788	81.2658
3.32574	81.2489
3.32361	81.2845
3.32148	81.2704
3.31936	81.2138
3.31723	81.2033
3.31511	81.2017
3.31299	81.1546
3.31088	81.052
3.30876	80.9093
3.30665	80.8178
3.30455	80.7639
3.30244	80.7669
3.30034	80.7849
3.29824	80.7697
3.29614	80.6948
3.29405	80.6506
3.29196	80.6455
3.28987	80.6001
3.28778	80.554
3.2857	80.5439
3.28362	80.4876
3.28154	80.4819
3.27946	80.4726
3.27739	80.3738
3.27532	80.3692
3.27325	80.3615
3.27119	80.3395
3.26913	80.4281
3.26707	80.4482
3.26501	80.2656
3.26295	80.2057
3.2609	80.2712
3.25885	80.2446
3.2568	80.1695
3.25476	80.1819
3.25272	80.1926
3.25068	80.2124
3.24864	80.1947
3.24661	80.1279
3.24458	80.1596
3.24255	80.1683
3.24052	80.1644
3.2385	80.1565
3.23648	80.1148
3.23446	80.0503
3.23244	80.0515
3.23043	80.0365
3.22841	80.0072
3.2264	80.0134
3.2244	79.9514
3.22239	79.8315
3.22039	79.7704
3.21839	79.7819
3.2164	79.8374
3.2144	79.7802
3.21241	79.7314
3.21042	79.6882
3.20844	79.619
3.20645	79.6193
3.20447	79.59
3.20249	79.4811
3.20051	79.4669
3.19854	79.4588
3.19657	79.4191
3.1946	79.3826
3.19263	79.2814
3.19067	79.167
3.1887	79.0588
3.18674	79.0109
3.18479	79.0177
3.18283	78.9785
3.18088	79.0155
3.17893	78.9975
3.17698	78.9063
3.17504	78.832
3.17309	78.7529
3.17115	78.8017
3.16921	78.7673
3.16728	78.6567
3.16534	78.5666
3.16341	78.4347
3.16148	78.4016
3.15956	78.4082
3.15763	78.3032
3.15571	78.1428
3.15379	78.026
3.15187	77.9595
3.14996	77.7706
3.14805	77.53
3.14614	77.2921
3.14423	77.1047
3.14232	76.9277
3.14042	76.7097
3.13852	76.5076
3.13662	76.2948
3.13472	76.1061
3.13283	76.0241
3.13094	75.9519
3.12905	75.8866
3.12716	75.8564
3.12528	75.8217
3.12339	75.8337
3.12151	75.8892
3.11964	75.9806
3.11776	75.9959
3.11589	76.069
3.11401	76.1517
3.11214	76.2641
3.11028	76.3185
3.10841	76.2957
3.10655	76.3701
3.10469	76.5039
3.10283	76.5121
3.10098	76.5043
3.09912	76.5764
3.09727	76.6295
3.09542	76.5856
3.09358	76.525
3.09173	76.5232
3.08989	76.4806
3.08805	76.4416
3.08621	76.3887
3.08437	76.3737
3.08254	76.3359
3.08071	76.2263
3.07888	76.1954
3.07705	76.1412
3.07523	75.9731
3.0734	75.9118
3.07158	75.8756
3.06977	75.775
3.06795	75.7427
3.06613	75.6082
3.06432	75.4222
3.06251	75.3072
3.0607	75.1279
3.0589	74.8979
3.0571	74.8123
3.05529	74.657
3.05349	74.4381
3.0517	74.2244
3.0499	73.9625
3.04811	73.7148
3.04632	73.4737
3.04453	73.2739
3.04274	73.1175
3.04096	72.8841
3.03918	72.6265
3.0374	72.4309
3.03562	72.1755
3.03384	72.004
3.03207	71.8832
3.03029	71.7092
3.02852	71.4694
3.02676	71.3482
3.02499	71.3119
3.02323	71.2587
3.02146	71.1816
3.0197	71.1504
3.01795	71.1338
3.01619	71.129
3.01444	71.1473
3.01269	71.1716
3.01094	71.3057
3.00919	71.4736
3.00744	71.7352
3.0057	71.9159
3.00396	72.1253
3.00222	72.3545
3.00048	72.3997
2.99875	72.5161
2.99701	72.6656
2.99528	72.729
2.99355	72.7926
2.99183	72.7769
2.9901	72.6667
2.98838	72.594
2.98666	72.6261
2.98494	72.5849
2.98322	72.3165
2.9815	72.0563
2.97979	71.7528
2.97808	71.374
2.97637	70.8395
2.97466	70.0957
2.97295	69.2643
2.97125	68.3991
2.96955	67.4893
2.96785	66.5576
2.96615	65.4079
2.96446	64.3426
2.96276	63.6467
2.96107	63.2865
2.95938	63.2565
2.95769	63.6425
2.95601	64.2787
2.95432	64.9689
2.95264	65.7412
2.95096	66.5348
2.94928	67.2261
2.9476	67.9136
2.94593	68.4237
2.94425	68.7369
2.94258	69.0012
2.94092	69.372
2.93925	69.6247
2.93758	69.7446
2.93592	69.9688
2.93426	70.1966
2.9326	70.3475
2.93094	70.478
2.92928	70.6173
2.92763	70.6756
2.92598	70.6016
2.92433	70.5653
2.92268	70.6037
2.92103	70.4609
2.91939	70.2846
2.91775	70.2372
2.9161	70.2172
2.91447	70.2462
2.91283	70.4009
2.91119	70.5474
2.90956	70.8009
2.90793	71.0739
2.9063	71.3148
2.90467	71.5595
2.90304	71.9364
2.90142	72.345
2.89979	72.7006
2.89817	73.016
2.89656	73.3262
2.89494	73.6163
2.89332	73.9846
2.89171	74.253
2.8901	74.4104
2.88849	74.5562
2.88688	74.627
2.88527	74.7839
2.88367	74.8908
2.88206	74.8092
2.88046	74.7259
2.87886	74.5768
2.87727	74.3534
2.87567	73.9445
2.87408	73.3473
2.87248	72.823
2.87089	72.7815
2.8693	73.3497
2.86772	74.1127
2.86613	74.795
2.86455	75.218
2.86297	75.4925
2.86139	75.8145
2.85981	76.0124
2.85823	76.0668
2.85666	76.1554
2.85508	76.1812
2.85351	76.1875
2.85194	76.2541
2.85038	76.2595
2.84881	76.2594
2.84724	76.4047
2.84568	76.4901
2.84412	76.5434
2.84256	76.7256
2.841	76.8546
2.83945	76.996
2.83789	77.1904
2.83634	77.4144
2.83479	77.6277
2.83324	77.7911
2.83169	77.9748
2.83015	77.9551
2.82861	77.9792
2.82706	78.1579
2.82552	78.3335
2.82398	78.3877
2.82245	78.4353
2.82091	78.626
2.81938	78.8522
2.81784	78.8168
2.81631	78.7777
2.81479	78.8054
2.81326	78.8854
2.81173	79.0067
2.81021	78.9554
2.80869	78.9978
2.80716	79.2062
2.80565	79.3576
2.80413	79.4805
2.80261	79.5613
2.8011	79.4915
2.79959	79.5009
2.79808	79.6597
2.79657	79.6618
2.79506	79.5838
2.79355	79.6534
2.79205	79.7428
2.79055	79.8093
2.78904	79.8615
2.78754	79.9735
2.78605	79.9959
2.78455	79.7881
2.78306	79.398
2.78156	79.0072
2.78007	79.2042
2.77858	79.7966
2.77709	80.1921
2.77561	80.4257
2.77412	80.4674
2.77264	80.6079
2.77116	80.8465
2.76968	80.8951
2.7682	81.0483
2.76672	81.0335
2.76524	80.8137
2.76377	80.8881
2.7623	80.9315
2.76083	80.7459
2.75936	80.877
2.75789	81.2397
2.75642	81.7496
2.75496	81.8721
2.7535	81.4743
2.75203	81.4741
2.75057	81.7544
2.74912	81.9397
2.74766	81.9378
2.7462	82.0718
2.74475	82.2308
2.7433	82.478
2.74185	82.8661
2.7404	83.2753
2.73895	83.2952
2.7375	83.0564
2.73606	83.2295
2.73462	83.4574
2.73318	83.3513
2.73174	83.4572
2.7303	83.69
2.72886	83.7678
2.72742	84.0116
2.72599	84.5294
2.72456	84.9197
2.72313	84.8892
2.7217	85.037
2.72027	85.3298
2.71884	85.2572
2.71742	85.4053
2.71599	85.5697
2.71457	85.7316
2.71315	85.8822
2.71173	86.1432
2.71032	86.2022
2.7089	86.0278
2.70748	85.9153
2.70607	85.8705
2.70466	85.8882
2.70325	86.0555
2.70184	86.3859
2.70043	86.5158
2.69903	86.6056
2.69762	86.7898
2.69622	87.0593
2.69482	87.4194
2.69342	87.638
2.69202	87.5516
2.69062	87.4982
2.68923	87.5242
2.68783	87.6467
2.68644	87.7877
2.68505	87.8959
2.68366	88.0197
2.68227	88.0277
2.68089	88.1087
2.6795	88.3724
2.67812	88.5511
2.67673	88.6992
2.67535	88.6062
2.67397	88.488
2.6726	88.6029
2.67122	89.2183
2.66984	89.3425
2.66847	89.0088
2.6671	89.2863
2.66572	89.4467
2.66435	89.3034
2.66299	88.9311
2.66162	88.8657
2.66025	88.9
2.65889	88.9028
2.65753	88.8502
2.65616	88.8735
2.65481	88.9068
2.65345	89.0573
2.65209	89.1109
2.65073	88.9735
2.64938	88.8775
2.64803	88.8472
2.64667	88.9295
2.64532	89.0049
2.64397	88.8698
2.64263	88.8983
2.64128	88.9376
2.63994	88.9602
2.63859	88.9713
2.63725	88.9944
2.63591	88.9934
2.63457	89.106
2.63323	89.168
2.6319	89.2159
2.63056	89.3182
2.62923	89.1678
2.62789	89.2345
2.62656	89.3424
2.62523	89.0507
2.6239	88.9544
2.62258	88.9865
2.62125	89.2179
2.61993	89.3418
2.6186	89.302
2.61728	89.5346
2.61596	89.3613
2.61464	89.0295
2.61332	89.0574
2.61201	89.0772
2.61069	89.1005
2.60938	89.17
2.60807	89.1881
2.60675	89.3686
2.60544	89.5985
2.60414	89.4482
2.60283	89.214
2.60152	89.128
2.60022	89.0227
2.59891	89.0367
2.59761	89.1263
2.59631	89.5561
2.59501	90.1053
2.59371	89.6832
2.59242	89.1206
2.59112	88.9479
2.58983	89.054
2.58853	89.2931
2.58724	89.3355
2.58595	89.2452
2.58466	89.3919
2.58338	89.2372
2.58209	88.9834
2.5808	89.0077
2.57952	88.9352
2.57824	88.9895
2.57695	89.0362
2.57567	88.8927
2.5744	89.0125
2.57312	89.1801
2.57184	89.0462
2.57057	89.1733
2.56929	89.2504
2.56802	89.0534
2.56675	88.9992
2.56548	89.1172
2.56421	89.2862
2.56294	89.3385
2.56168	89.3484
2.56041	89.1668
2.55915	89.0151
2.55789	89.0026
2.55662	89.013
2.55536	88.9683
2.5541	88.986
2.55285	89.0851
2.55159	89.1315
2.55034	89.1549
2.54908	89.2055
2.54783	89.2279
2.54658	89.1218
2.54533	89.0248
2.54408	89.0754
2.54283	89.121
2.54159	89.0593
2.54034	89.038
2.5391	89.1471
2.53785	89.202
2.53661	89.1699
2.53537	89.2129
2.53413	89.2746
2.53289	89.2808
2.53166	89.2898
2.53042	89.3628
2.52919	89.3324
2.52795	89.3123
2.52672	89.2751
2.52549	89.328
2.52426	89.2865
2.52303	89.2562
2.52181	89.2471
2.52058	89.212
2.51936	89.2614
2.51813	89.278
2.51691	89.2926
2.51569	89.2818
2.51447	89.2541
2.51325	89.3191
2.51203	89.3269
2.51082	89.2241
2.5096	89.204
2.50839	89.295
2.50717	89.2583
2.50596	89.1435
2.50475	89.1929
2.50354	89.211
2.50233	89.2294
2.50113	89.2895
2.49992	89.233
2.49872	89.1311
2.49751	89.0798
2.49631	89.1359
2.49511	89.1312
2.49391	89.2365
2.49271	89.4098
2.49151	89.418
2.49031	89.3592
2.48912	89.3401
2.48792	89.292
2.48673	89.2106
2.48554	89.2209
2.48435	89.2593
2.48316	89.2908
2.48197	89.3877
2.48078	89.4103
2.4796	89.4639
2.47841	89.4648
2.47723	89.3323
2.47604	89.3203
2.47486	89.3356
2.47368	89.3568
2.4725	89.4196
2.47132	89.3472
2.47014	89.3258
2.46897	89.3073
2.46779	89.3617
2.46662	89.455
2.46545	89.365
2.46427	89.3808
2.4631	89.3464
2.46193	89.28
2.46077	89.3844
2.4596	89.5423
2.45843	89.4746
2.45727	89.4545
2.4561	89.5881
2.45494	89.5848
2.45378	89.4998
2.45262	89.5059
2.45146	89.4699
2.4503	89.5262
2.44914	89.5649
2.44799	89.4546
2.44683	89.5338
2.44568	89.6037
2.44452	89.4883
2.44337	89.4794
2.44222	89.4815
2.44107	89.455
2.43992	89.5375
2.43877	89.5452
2.43763	89.5763
2.43648	89.6138
2.43534	89.6231
2.43419	89.5805
2.43305	89.5329
2.43191	89.5357
2.43077	89.6298
2.42963	89.6613
2.42849	89.5953
2.42736	89.5604
2.42622	89.6759
2.42509	89.7602
2.42395	89.666
2.42282	89.6009
2.42169	89.6364
2.42056	89.7021
2.41943	89.706
2.4183	89.6214
2.41717	89.7019
2.41605	89.7621
2.41492	89.7243
2.4138	89.6531
2.41267	89.6289
2.41155	89.632
2.41043	89.581
2.40931	89.5362
2.40819	89.6462
2.40707	89.6652
2.40595	89.6835
2.40484	89.8454
2.40372	89.8102
2.40261	89.6921
2.4015	89.6566
2.40039	89.6498
2.39928	89.6394
2.39817	89.6342
2.39706	89.6639
2.39595	89.6706
2.39484	89.6723
2.39374	89.7216
2.39263	89.8381
2.39153	89.9295
2.39043	89.8431
2.38932	89.7756
2.38822	89.7382
2.38712	89.6172
2.38603	89.5872
2.38493	89.7111
2.38383	89.7175
2.38274	89.6971
2.38164	89.7803
2.38055	89.8159
2.37946	89.825
2.37836	89.8046
2.37727	89.7562
2.37618	89.7991
2.3751	89.8843
2.37401	89.8839
2.37292	89.7792
2.37184	89.6877
2.37075	89.6987
2.36967	89.7024
2.36859	89.6189
2.3675	89.6801
2.36642	89.7955
2.36534	89.8787
2.36427	89.7539
2.36319	89.7094
2.36211	89.7432
2.36104	89.8148
2.35996	89.9065
2.35889	89.8695
2.35781	89.8434
2.35674	89.8302
2.35567	89.8852
2.3546	89.8858
2.35353	89.742
2.35247	89.7397
2.3514	89.8156
2.35033	89.8514
2.34927	89.8241
2.3482	89.8626
2.34714	89.802
2.34608	89.7376
2.34502	89.8247
2.34396	89.9478
2.3429	89.8494
2.34184	89.8109
2.34078	89.8804
2.33973	89.8205
2.33867	89.746
2.33762	89.834
2.33656	89.9339
2.33551	89.9007
2.33446	89.9426
2.33341	90.0211
2.33236	89.8207
2.33131	89.7664
2.33026	89.9009
2.32922	89.8736
2.32817	89.9129
2.32712	90.019
2.32608	89.8817
2.32504	89.7447
2.324	89.8025
2.32295	89.8761
2.32191	89.8878
2.32087	89.9262
2.31984	89.9582
2.3188	89.861
2.31776	89.8116
2.31673	89.8547
2.31569	89.9463
2.31466	89.8998
2.31362	89.9995
2.31259	90.1243
2.31156	90.0096
2.31053	89.8774
2.3095	89.7762
2.30847	89.8156
2.30745	89.9934
2.30642	89.9437
2.3054	89.8044
2.30437	89.8688
2.30335	89.9001
2.30232	89.8747
2.3013	90.0295
2.30028	90.1446
2.29926	90.0557
2.29824	89.9109
2.29722	89.8171
2.29621	89.8644
2.29519	89.9688
2.29417	89.9096
2.29316	89.8992
2.29215	89.9617
2.29113	89.952
2.29012	89.8561
2.28911	89.9224
2.2881	90.0387
2.28709	89.9496
2.28608	89.904
2.28507	89.9206
2.28407	90.0075
2.28306	89.9916
2.28206	89.9294
2.28105	89.9591
2.28005	90.0114
2.27905	90.051
2.27805	89.9262
2.27705	89.8268
2.27605	89.7823
2.27505	89.8163
2.27405	89.8606
2.27305	89.9293
2.27206	89.9729
2.27106	89.8995
2.27007	89.866
2.26907	89.823
2.26808	89.8093
2.26709	89.8346
2.2661	89.9326
2.26511	90.0267
2.26412	89.8524
2.26313	89.9542
2.26214	90.2266
2.26116	90.1899
2.26017	90.0589
2.25919	89.9484
2.2582	89.8982
2.25722	89.8293
2.25624	89.8642
2.25526	90.0005
2.25428	90.0788
2.2533	90.0754
2.25232	90.0357
2.25134	90.0286
2.25036	90.0015
2.24939	89.8444
2.24841	89.7336
2.24744	89.825
2.24646	89.8989
2.24549	89.8459
2.24452	89.8344
2.24355	89.8096
2.24257	89.6775
2.24161	89.8369
2.24064	90.0899
2.23967	90.2197
2.2387	90.0447
2.23774	89.825
2.23677	89.8839
2.23581	89.891
2.23484	89.8232
2.23388	89.8447
2.23292	89.9299
2.23196	89.9945
2.231	90.0807
2.23004	90.0222
2.22908	89.9482
2.22812	89.9026
2.22716	89.8292
2.22621	89.7138
2.22525	89.7929
2.2243	89.956
2.22334	89.9602
2.22239	89.8413
2.22144	89.8265
2.22049	89.8587
2.21953	89.9804
2.21859	89.9861
2.21764	89.9117
2.21669	89.7954
2.21574	89.7866
2.21479	89.7686
2.21385	89.6152
2.2129	89.6037
2.21196	89.7808
2.21102	89.9087
2.21007	89.9257
2.20913	89.7542
2.20819	89.5898
2.20725	89.6227
2.20631	89.7818
2.20537	89.7188
2.20444	89.7138
2.2035	89.7835
2.20256	89.8096
2.20163	89.8995
2.20069	89.9249
2.19976	89.8184
2.19883	89.6773
2.19789	89.7331
2.19696	89.8379
2.19603	89.8644
2.1951	89.8887
2.19417	89.7682
2.19325	89.7276
2.19232	89.7053
2.19139	89.8218
2.19047	89.7914
2.18954	89.8106
2.18862	89.8044
2.18769	89.834
2.18677	89.9587
2.18585	89.9568
2.18493	89.8101
2.18401	89.7597
2.18309	89.7605
2.18217	89.6087
2.18125	89.6488
2.18033	89.9206
2.17942	90.0142
2.1785	89.9633
2.17759	90.0005
2.17667	90.0247
2.17576	89.9326
2.17485	89.9032
2.17393	89.846
2.17302	89.8253
2.17211	89.919
2.1712	89.8994
2.17029	89.8682
2.16939	89.8782
2.16848	89.9407
2.16757	90.025
2.16667	89.957
2.16576	89.8433
2.16486	89.8196
2.16395	90.072
2.16305	90.3031
2.16215	90.2773
2.16125	90.0543
2.16035	89.8773
2.15945	89.9144
2.15855	89.8207
2.15765	89.7835
2.15675	90.0308
2.15586	90.1006
2.15496	89.9405
2.15406	89.9507
2.15317	90.2149
2.15228	90.1951
2.15138	89.996
2.15049	90.0823
2.1496	90.0884
2.14871	89.9081
2.14782	90.0102
2.14693	90.0803
2.14604	90.0985
2.14515	90.2181
2.14427	90.2127
2.14338	90.0455
2.14249	89.9638
2.14161	90.0831
2.14072	90.1046
2.13984	89.927
2.13896	89.9305
2.13808	90.042
2.13719	90.1372
2.13631	90.1212
2.13543	90.0989
2.13455	90.0571
2.13368	90.1543
2.1328	90.2432
2.13192	90.0923
2.13105	89.9646
2.13017	89.9968
2.1293	90.1372
2.12842	90.1631
2.12755	89.9944
2.12668	89.9859
2.1258	90.0586
2.12493	90.0062
2.12406	90.1483
2.12319	90.2086
2.12232	90.0999
2.12145	90.1019
2.12059	89.9993
2.11972	90.0465
2.11885	90.2633
2.11799	90.2031
2.11712	90.0435
2.11626	90.0526
2.1154	90.036
2.11453	90.1527
2.11367	90.1878
2.11281	90.0428
2.11195	89.8865
2.11109	89.7413
2.11023	89.8738
2.10937	89.92
2.10851	89.8112
2.10766	89.9468
2.1068	90.0622
2.10594	89.9109
2.10509	89.8541
2.10423	90.0343
2.10338	90.1327
2.10253	90.2087
2.10168	90.134
2.10082	90.1196
2.09997	90.119
2.09912	90.0469
2.09827	90.0703
2.09742	89.9634
2.09658	89.9575
2.09573	90.018
2.09488	90.1154
2.09404	90.2129
2.09319	89.943
2.09235	89.8258
2.0915	90.0939
2.09066	90.1085
2.08982	89.9502
2.08897	89.9831
2.08813	90.1608
2.08729	90.1351
2.08645	89.9651
2.08561	90.0458
2.08477	90.3247
2.08394	90.3747
2.0831	90.1833
2.08226	90.0699
2.08143	90.0831
2.08059	89.8718
2.07976	89.752
2.07892	89.9849
2.07809	90.0788
2.07726	90.0233
2.07643	90.1593
2.07559	90.1779
2.07476	89.8953
2.07393	89.8192
2.0731	89.8138
2.07228	90.0127
2.07145	90.209
2.07062	90.0812
2.06979	89.7736
2.06897	89.5731
2.06814	89.7655
2.06732	90.1318
2.06649	90.1034
2.06567	89.8807
2.06485	89.8177
2.06403	89.9174
2.0632	89.9493
2.06238	90.0862
2.06156	90.1075
2.06074	90.1312
2.05993	90.2259
2.05911	90.2492
2.05829	90.0607
2.05747	89.9695
2.05666	89.9231
2.05584	90.0936
2.05503	90.2597
2.05421	90.1911
2.0534	90.1561
2.05259	90.3045
2.05177	90.2338
2.05096	89.9994
2.05015	90.0554
2.04934	90.16
2.04853	90.0636
2.04772	89.9917
2.04691	89.9548
2.04611	89.9368
2.0453	90.0616
2.04449	89.9909
2.04369	89.9384
2.04288	90.0024
2.04208	89.9921
2.04127	89.9459
2.04047	89.87
2.03967	89.9021
2.03886	90.076
2.03806	90.2235
2.03726	90.2437
2.03646	90.1319
2.03566	89.9686
2.03486	90.0501
2.03407	90.1741
2.03327	90.3201
2.03247	90.0797
2.03167	89.7783
2.03088	89.8872
2.03008	90.1801
2.02929	90.2747
2.0285	90.1673
2.0277	89.8002
2.02691	89.6196
2.02612	90.0622
2.02533	90.2814
2.02453	90.1032
2.02374	90.1211
2.02295	90.095
2.02217	89.8464
2.02138	89.6865
2.02059	89.8207
2.0198	90.2509
2.01902	90.2909
2.01823	90.1558
2.01744	90.1452
2.01666	90.1285
2.01588	90.0904
2.01509	90.0799
2.01431	90.0011
2.01353	89.7327
2.01275	89.7867
2.01196	89.9378
2.01118	89.9715
2.0104	89.9174
2.00963	89.9946
2.00885	89.8894
2.00807	90.1062
2.00729	90.3288
2.00651	90.0099
2.00574	89.8034
2.00496	90.0111
2.00419	90.0806
2.00341	89.9957
2.00264	90.1101
2.00187	90.0499
2.00109	89.9387
2.00032	89.9529
