Name: Quartz SiO_2
Type: Mineral
Class: Silicates
Subclass: Tectosilicates
Particle Size: 125-500um
Sample No.: TS-1C
Owner: JPL
Wavelength range: IR
Origin: USA, South Dakota, Custer County, Custer
Collected by Ward's
Description:  Rose quartz. 





Measurement: Hemispherical reflectance
First Column: X
Second Column: Y
X Units:  Wavelength (micrometers)
Y Units:  Reflectance (percent)
First X Value: 15.3853
Last X Value: 2.00032
Number of X Values: 2256
Additional information: ts01ca.txt
 
15.3853	3.72199
15.3397	3.64088
15.2945	3.54511
15.2495	3.51324
15.2048	3.82204
15.1603	3.79919
15.1161	3.69192
15.0722	3.6047
15.0285	3.46485
14.9851	3.67964
14.9419	4.04194
14.8989	3.94527
14.8563	3.98225
14.8138	4.17246
14.7716	4.11554
14.7296	4.23364
14.6879	4.14837
14.6464	4.06061
14.6052	4.36461
14.5641	4.6569
14.5233	4.7435
14.4828	4.82348
14.4424	4.99056
14.4023	5.00232
14.3624	4.48124
14.3227	3.45165
14.2833	2.84574
14.244	2.88619
14.205	3.13223
14.1662	3.45339
14.1276	3.68484
14.0892	3.7141
14.051	3.74224
14.0131	4.01967
13.9753	4.06628
13.9377	4.01104
13.9004	4.11606
13.8632	4.28674
13.8262	4.38425
13.7895	4.38656
13.7529	4.46355
13.7165	4.837
13.6803	4.93356
13.6443	4.83746
13.6085	4.70022
13.5729	4.71726
13.5374	4.84997
13.5022	5.05108
13.4671	5.21389
13.4322	5.29454
13.3975	5.3667
13.363	5.5102
13.3286	5.68822
13.2944	5.7027
13.2604	5.7835
13.2266	6.14532
13.193	6.31189
13.1595	6.47373
13.1262	6.81695
13.093	7.10937
13.06	7.26413
13.0272	7.63101
12.9946	8.41192
12.9621	9.34766
12.9298	10.3593
12.8976	11.6406
12.8656	13.0875
12.8337	14.2629
12.8021	14.7601
12.7705	14.4612
12.7391	13.3994
12.7079	11.7859
12.6769	10.0874
12.6459	9.04262
12.6152	9.17412
12.5845	10.2422
12.5541	11.3645
12.5238	12.1596
12.4936	12.4013
12.4635	11.9281
12.4337	10.6239
12.4039	8.37632
12.3743	5.35641
12.3448	2.77312
12.3155	1.46163
12.2863	1.17283
12.2573	1.12501
12.2284	1.24188
12.1996	1.36888
12.171	1.66182
12.1425	1.86696
12.1141	1.8286
12.0859	2.00385
12.0578	2.29185
12.0298	2.48144
12.0019	2.52377
11.9742	2.62097
11.9466	2.87677
11.9192	3.03081
11.8918	3.02371
11.8646	3.11855
11.8375	3.39858
11.8106	3.52894
11.7837	3.43005
11.757	3.34954
11.7304	3.51127
11.7039	3.66785
11.6776	3.77918
11.6513	3.85648
11.6252	3.9348
11.5992	4.03068
11.5733	4.03614
11.5475	4.16624
11.5219	4.24117
11.4963	4.12971
11.4709	4.12737
11.4455	4.4038
11.4203	4.62642
11.3952	4.62062
11.3702	4.62715
11.3454	4.72702
11.3206	4.75281
11.2959	4.78807
11.2714	4.83744
11.2469	4.96408
11.2226	5.03434
11.1983	5.07107
11.1742	5.30879
11.1502	5.33462
11.1263	5.34204
11.1024	5.40628
11.0787	5.41783
11.0551	5.40573
11.0316	5.48359
11.0081	5.51447
10.9848	5.59796
10.9616	5.67307
10.9385	5.72519
10.9154	5.66833
10.8925	5.66952
10.8697	5.87727
10.8469	6.02698
10.8243	6.04066
10.8017	6.0562
10.7793	6.09116
10.7569	6.17134
10.7346	6.24702
10.7125	6.26298
10.6904	6.4023
10.6684	6.57423
10.6465	6.60324
10.6247	6.5354
10.6029	6.51781
10.5813	6.60193
10.5597	6.78639
10.5383	6.93442
10.5169	7.01818
10.4956	7.09774
10.4744	7.3024
10.4533	7.37678
10.4323	7.38221
10.4113	7.51708
10.3904	7.60505
10.3697	7.61953
10.349	7.66239
10.3284	7.91971
10.3078	8.07007
10.2874	8.1244
10.267	8.23744
10.2467	8.28042
10.2265	8.4177
10.2064	8.57244
10.1863	8.79054
10.1663	9.08027
10.1464	9.21336
10.1266	9.28807
10.1069	9.37713
10.0872	9.45113
10.0676	9.55429
10.0481	9.67411
10.0287	9.87262
10.0093	10.1733
9.99005	10.3855
9.97084	10.5994
9.95169	10.7314
9.93263	10.859
9.91364	11.0856
9.89472	11.3573
9.87587	11.602
9.8571	11.7278
9.83839	12.045
9.81976	12.5099
9.80119	12.8626
9.78271	13.1508
9.76428	13.4858
9.74592	13.8387
9.72764	14.2745
9.70943	14.7509
9.69128	15.1549
9.6732	15.6021
9.65518	16.2153
9.63724	16.7679
9.61935	17.1887
9.60155	17.6803
9.5838	18.3753
9.56611	19.0827
9.5485	19.8482
9.53094	20.8876
9.51345	22.0877
9.49604	23.355
9.47867	24.7078
9.46137	26.3245
9.44414	28.1996
9.42697	30.5661
9.40986	33.5779
9.39281	37.1187
9.37583	40.8296
9.35891	44.3983
9.34204	47.7467
9.32524	50.6186
9.3085	52.8581
9.29182	54.3982
9.27519	55.4567
9.25863	56.2247
9.24213	56.8628
9.22568	57.4251
9.2093	57.8389
9.19297	58.139
9.17669	58.5098
9.16048	58.7801
9.14433	59.082
9.12823	59.3602
9.11218	59.6307
9.0962	59.7669
9.08027	59.8901
9.06439	60.077
9.04858	60.3429
9.03281	60.5507
9.0171	60.6634
9.00145	60.7206
8.98585	60.7665
8.9703	60.8412
8.9548	60.8936
8.93937	60.7301
8.92398	60.6547
8.90865	60.5799
8.89337	60.4507
8.87814	60.2163
8.86296	60.0392
8.84784	59.695
8.83277	59.1697
8.81774	58.5474
8.80277	57.8548
8.78786	57.1955
8.77298	56.5357
8.75816	55.9018
8.7434	55.2664
8.72868	54.3478
8.714	53.1228
8.69938	51.6259
8.68481	49.489
8.67029	46.1445
8.65581	41.4068
8.64139	36.2783
8.62701	33.9047
8.61268	36.3575
8.5984	41.6467
8.58416	46.6564
8.56997	50.26
8.55583	52.6247
8.54174	54.2027
8.52769	55.1938
8.51368	55.6954
8.49973	55.9683
8.48582	56.0719
8.47195	55.8928
8.45813	55.6076
8.44436	55.318
8.43062	55.0341
8.41693	54.7375
8.4033	54.3872
8.3897	53.9359
8.37614	53.5065
8.36264	53.1619
8.34917	52.8529
8.33574	52.57
8.32236	52.1974
8.30903	51.8454
8.29573	51.5868
8.28248	51.2917
8.26927	50.9931
8.2561	50.601
8.24298	50.2357
8.2299	49.7755
8.21685	49.0416
8.20385	48.0703
8.19089	46.9809
8.17797	45.534
8.16509	43.7319
8.15225	41.5361
8.13946	39.011
8.1267	36.3778
8.11398	33.7243
8.10131	31.1742
8.08867	28.8185
8.07606	26.6573
8.0635	24.5147
8.05099	22.6023
8.0385	20.8796
8.02606	19.2274
8.01366	17.7519
8.00129	16.4201
7.98896	15.1308
7.97667	13.837
7.96442	12.6618
7.9522	11.5238
7.94002	10.3946
7.92788	9.29892
7.91578	8.35576
7.90371	7.50472
7.89168	6.69438
7.87969	5.92142
7.86773	5.24214
7.85581	4.701
7.84392	4.36254
7.83207	3.99564
7.82026	3.61718
7.80849	3.28537
7.79674	3.04453
7.78503	2.85881
7.77337	2.56273
7.76173	2.28525
7.75012	2.10288
7.73856	1.87897
7.72703	1.54375
7.71553	1.36261
7.70406	1.31894
7.69263	1.12091
7.68123	0.934685
7.66987	0.831927
7.65855	0.783527
7.64725	0.701347
7.63598	0.62312
7.62475	0.565386
7.61356	0.521768
7.60239	0.450039
7.59126	0.406668
7.58017	0.358939
7.5691	0.232281
7.55806	0.175362
7.54707	0.199118
7.5361	0.214438
7.52516	0.118219
7.51425	0.0510995
7.50338	0.0905075
7.49253	0.115444
7.48172	0.0806944
7.47094	0.0492512
7.46019	0.0534349
7.44947	0.0643
7.43879	0.0563517
7.42813	-0.0104965
7.4175	0.000785711
7.4069	0.0691042
7.39634	0.0884726
7.3858	0.0777556
7.37529	0.0488132
7.36482	-0.0093428
7.35437	0.00390466
7.34396	0.0239961
7.33357	0.00491837
7.32321	0.0403273
7.31288	0.114743
7.30258	0.159037
7.29231	0.136673
7.28207	0.0824124
7.27185	0.129571
7.26167	0.157195
7.25152	0.163437
7.24139	0.104366
7.23129	0.058509
7.22122	0.148827
7.21117	0.216581
7.20116	0.273501
7.19117	0.266206
7.18121	0.164129
7.17128	0.137423
7.16137	0.107979
7.1515	0.0824341
7.14164	0.105966
7.13182	0.0882717
7.12203	0.150853
7.11225	0.221715
7.10251	0.226698
7.0928	0.243947
7.08311	0.284956
7.07344	0.304735
7.06381	0.238793
7.0542	0.233421
7.04461	0.311996
7.03506	0.266347
7.02552	0.28402
7.01601	0.272943
7.00653	0.272015
6.99708	0.311765
6.98765	0.287415
6.97824	0.318475
6.96886	0.328008
6.95951	0.311799
6.95018	0.336374
6.94087	0.365117
6.9316	0.395216
6.92234	0.476807
6.91311	0.462472
6.90391	0.377542
6.89473	0.380225
6.88557	0.48908
6.87644	0.500496
6.86733	0.470698
6.85824	0.529019
6.84918	0.517226
6.84015	0.427689
6.83114	0.464413
6.82215	0.514529
6.81319	0.573088
6.80424	0.584608
6.79532	0.526118
6.78643	0.502889
6.77756	0.503503
6.76871	0.483033
6.75989	0.535193
6.75109	0.583655
6.74231	0.535099
6.73355	0.531594
6.72482	0.544496
6.71611	0.534156
6.70742	0.496384
6.69875	0.453574
6.69011	0.481242
6.68149	0.58751
6.67289	0.624017
6.66431	0.680072
6.65576	0.714793
6.64722	0.6628
6.63871	0.679045
6.63022	0.716172
6.62175	0.610519
6.61331	0.581171
6.60488	0.634289
6.59648	0.63016
6.5881	0.638535
6.57974	0.655953
6.5714	0.745467
6.56308	0.75634
6.55478	0.761267
6.54651	0.713285
6.53825	0.664147
6.53001	0.712457
6.5218	0.737786
6.51361	0.706114
6.50544	0.709153
6.49729	0.771286
6.48915	0.800193
6.48104	0.833707
6.47295	0.908894
6.46488	0.956198
6.45683	0.988597
6.4488	1.05396
6.44079	1.0856
6.4328	1.11234
6.42482	1.18106
6.41687	1.22355
6.40894	1.08788
6.40103	1.0594
6.39314	1.07342
6.38526	1.05708
6.37741	1.08632
6.36957	1.10352
6.36176	1.03415
6.35396	0.95268
6.34618	0.933416
6.33843	0.912048
6.33069	0.952732
6.32297	0.972218
6.31527	0.834018
6.30758	0.745877
6.29992	0.785407
6.29227	0.877776
6.28465	0.880433
6.27704	0.86076
6.26945	0.901702
6.26188	0.958606
6.25432	0.944618
6.24679	0.920749
6.23927	0.857969
6.23177	0.760237
6.22429	0.814089
6.21683	0.905743
6.20938	0.892621
6.20195	0.854952
6.19454	0.884777
6.18715	0.986283
6.17978	1.0136
6.17242	0.981577
6.16508	0.893865
6.15776	0.889917
6.15045	0.96021
6.14317	1.0014
6.1359	0.992933
6.12864	0.934891
6.12141	0.868383
6.11419	0.989811
6.10699	1.1595
6.0998	1.10869
6.09263	1.12827
6.08549	1.20498
6.07835	1.29122
6.07123	1.31164
6.06413	1.27287
6.05705	1.32181
6.04998	1.36049
6.04293	1.28096
6.0359	1.24278
6.02888	1.24051
6.02187	1.22526
6.01489	1.24177
6.00792	1.17901
6.00096	1.09371
5.99403	1.14732
5.98711	1.18665
5.9802	1.10336
5.97331	1.16818
5.96644	1.24643
5.95958	1.29457
5.95274	1.27603
5.94591	1.21994
5.9391	1.23141
5.9323	1.16318
5.92552	1.07375
5.91876	1.10311
5.91201	1.17373
5.90528	1.27996
5.89856	1.3316
5.89186	1.29733
5.88517	1.2532
5.8785	1.25651
5.87184	1.36983
5.8652	1.47278
5.85857	1.48975
5.85196	1.50724
5.84536	1.52359
5.83878	1.55456
5.83221	1.62035
5.82566	1.6733
5.81912	1.74162
5.81259	1.73855
5.80608	1.81207
5.79959	1.87813
5.79311	1.82823
5.78665	1.92346
5.78019	2.02958
5.77376	2.07607
5.76734	2.15689
5.76093	2.19925
5.75453	2.20809
5.74815	2.28862
5.74179	2.35764
5.73543	2.35831
5.7291	2.40984
5.72277	2.47285
5.71646	2.48939
5.71017	2.53534
5.70389	2.55228
5.69762	2.47869
5.69136	2.39263
5.68513	2.32933
5.6789	2.20045
5.67268	2.06298
5.66648	1.90824
5.6603	1.77504
5.65413	1.74261
5.64797	1.68804
5.64182	1.58548
5.63569	1.50508
5.62957	1.39775
5.62347	1.39007
5.61737	1.44473
5.61129	1.46655
5.60522	1.47043
5.59917	1.44175
5.59313	1.4281
5.5871	1.34969
5.58109	1.2396
5.57509	1.28717
5.5691	1.39528
5.56312	1.39532
5.55716	1.32711
5.55121	1.33412
5.54528	1.4692
5.53935	1.52601
5.53344	1.45964
5.52754	1.43236
5.52166	1.46188
5.51578	1.44157
5.50992	1.49113
5.50407	1.5419
5.49823	1.59546
5.49241	1.68031
5.4866	1.76951
5.4808	1.76412
5.47501	1.78519
5.46923	1.79122
5.46347	1.79302
5.45772	1.83429
5.45198	1.90016
5.44625	1.87478
5.44054	1.79407
5.43484	1.77414
5.42914	1.74195
5.42347	1.66087
5.4178	1.59714
5.41214	1.60992
5.4065	1.59108
5.40087	1.5042
5.39525	1.38764
5.38964	1.37888
5.38404	1.38351
5.37846	1.36342
5.37288	1.39702
5.36732	1.39155
5.36177	1.34777
5.35623	1.33864
5.35071	1.31944
5.34519	1.27751
5.33968	1.30671
5.33419	1.33206
5.32871	1.33037
5.32324	1.35312
5.31778	1.37498
5.31233	1.38642
5.30689	1.31559
5.30147	1.30092
5.29605	1.31937
5.29065	1.38853
5.28525	1.40628
5.27987	1.37522
5.2745	1.35408
5.26914	1.35884
5.26379	1.34567
5.25845	1.23963
5.25312	1.23817
5.24781	1.31536
5.2425	1.36361
5.23721	1.47209
5.23192	1.57536
5.22665	1.66257
5.22138	1.72119
5.21613	1.73504
5.21089	1.76849
5.20566	1.81258
5.20044	1.87688
5.19522	1.91249
5.19002	1.86831
5.18483	1.92404
5.17965	1.89615
5.17448	1.82197
5.16933	1.8665
5.16418	1.87714
5.15904	1.80334
5.15391	1.74281
5.14879	1.8222
5.14368	1.87287
5.13859	1.82721
5.1335	1.80301
5.12842	1.77842
5.12335	1.77182
5.1183	1.79941
5.11325	1.78921
5.10821	1.75785
5.10318	1.76598
5.09817	1.77049
5.09316	1.79296
5.08816	1.81374
5.08317	1.81004
5.07819	1.69785
5.07322	1.61288
5.06826	1.65657
5.06331	1.6857
5.05837	1.61889
5.05344	1.59274
5.04852	1.59329
5.04361	1.54299
5.03871	1.58497
5.03382	1.64612
5.02894	1.6777
5.02406	1.69279
5.0192	1.72498
5.01435	1.68653
5.0095	1.63669
5.00467	1.65268
4.99984	1.65641
4.99502	1.65229
4.99021	1.74047
4.98542	1.78717
4.98063	1.76834
4.97585	1.80098
4.97108	1.8157
4.96632	1.8493
4.96156	1.92505
4.95682	2.07495
4.95209	2.22015
4.94736	2.21093
4.94264	2.18375
4.93794	2.2899
4.93324	2.39265
4.92855	2.4669
4.92387	2.61874
4.9192	2.79831
4.91453	3.0033
4.90988	3.29897
4.90524	3.65379
4.9006	4.12121
4.89597	4.73951
4.89135	5.37523
4.88674	6.09269
4.88214	6.8423
4.87755	7.60812
4.87296	8.30945
4.86839	9.09452
4.86382	9.92594
4.85926	10.5902
4.85471	11.1561
4.85017	11.77
4.84564	12.4591
4.84111	13.0704
4.8366	13.6688
4.83209	14.1299
4.82759	14.6466
4.8231	15.2312
4.81862	15.7566
4.81415	16.2192
4.80968	16.7027
4.80522	17.2062
4.80077	17.7085
4.79633	18.2174
4.7919	18.6646
4.78747	19.0579
4.78306	19.5558
4.77865	20.0216
4.77425	20.4034
4.76986	20.7714
4.76547	21.1564
4.7611	21.5281
4.75673	21.8045
4.75237	22.0071
4.74802	22.3188
4.74367	22.6773
4.73934	22.9675
4.73501	23.1541
4.73069	23.2564
4.72638	23.2362
4.72207	23.1446
4.71777	23.0625
4.71348	22.7998
4.7092	22.2379
4.70493	21.4931
4.70066	20.7317
4.69641	19.8603
4.69216	18.9524
4.68791	18.2272
4.68368	17.8589
4.67945	17.8164
4.67523	18.1813
4.67102	18.9052
4.66682	19.7931
4.66262	20.7666
4.65843	21.7714
4.65425	22.6636
4.65007	23.5735
4.64591	24.5259
4.64175	25.4717
4.6376	26.4108
4.63345	27.348
4.62932	28.1509
4.62519	28.8617
4.62106	29.4344
4.61695	29.9645
4.61284	30.515
4.60874	30.9815
4.60465	31.3268
4.60056	31.6267
4.59648	31.8276
4.59241	32.0308
4.58835	32.1832
4.58429	32.2493
4.58024	32.2887
4.5762	32.2337
4.57216	32.0872
4.56814	31.8661
4.56411	31.5943
4.5601	31.1963
4.55609	30.5878
4.55209	29.9054
4.5481	29.1948
4.54411	28.3302
4.54013	27.2856
4.53616	26.2008
4.5322	25.0795
4.52824	23.9823
4.52429	22.8854
4.52034	21.7183
4.51641	20.5211
4.51247	19.2738
4.50855	18.0754
4.50463	17.0367
4.50072	16.257
4.49682	15.6088
4.49292	15.063
4.48903	14.6785
4.48515	14.3895
4.48127	14.1665
4.4774	13.9528
4.47354	13.7887
4.46968	13.7106
4.46584	13.6669
4.46199	13.7961
4.45815	14.0998
4.45432	14.518
4.4505	14.9747
4.44668	15.3658
4.44287	15.6678
4.43907	15.9767
4.43527	16.2499
4.43148	16.4679
4.4277	16.726
4.42392	17.1069
4.42015	17.5359
4.41638	17.9446
4.41262	18.3258
4.40887	18.7955
4.40513	19.3672
4.40139	19.8818
4.39765	20.3999
4.39393	21.0403
4.39021	21.7026
4.38649	22.3269
4.38278	23.1302
4.37908	24.0239
4.37539	24.7319
4.3717	25.4287
4.36801	26.239
4.36434	27.0367
4.36067	27.7782
4.357	28.3805
4.35335	28.9306
4.34969	29.4691
4.34605	29.9593
4.34241	30.3699
4.33877	30.5557
4.33514	30.7127
4.33152	30.9256
4.32791	31.0345
4.3243	31.054
4.32069	30.9508
4.3171	30.745
4.31351	30.5673
4.30992	30.3282
4.30634	30.0003
4.30277	29.7074
4.2992	29.544
4.29564	29.4422
4.29208	29.3684
4.28853	29.3615
4.28499	29.4909
4.28145	29.6659
4.27792	29.8213
4.27439	30.0036
4.27087	30.2738
4.26735	30.7632
4.26384	31.2546
4.26034	31.6643
4.25684	32.0137
4.25335	32.2489
4.24986	32.3109
4.24638	32.172
4.24291	32.0728
4.23944	32.0383
4.23598	32.045
4.23252	32.1173
4.22906	32.253
4.22562	32.4505
4.22218	32.6906
4.21874	32.8764
4.21531	33.0147
4.21189	33.1803
4.20847	33.2768
4.20506	33.3054
4.20165	33.3654
4.19825	33.4979
4.19485	33.6186
4.19146	33.7819
4.18807	34.0875
4.18469	34.4761
4.18132	34.8419
4.17795	35.1853
4.17458	35.5616
4.17123	35.8715
4.16787	36.1157
4.16453	36.3791
4.16118	36.6696
4.15785	36.9055
4.15451	37.1905
4.15119	37.4984
4.14787	37.7741
4.14455	38.0196
4.14124	38.2467
4.13794	38.531
4.13464	38.8543
4.13134	39.197
4.12805	39.5286
4.12477	39.8285
4.12149	40.2344
4.11822	40.6381
4.11495	41.0421
4.11168	41.479
4.10843	41.9399
4.10517	42.3786
4.10192	42.7633
4.09868	43.1434
4.09545	43.5811
4.09221	43.9981
4.08899	44.345
4.08576	44.7294
4.08255	45.1043
4.07933	45.3895
4.07613	45.6563
4.07292	45.8308
4.06973	46.0008
4.06654	46.1586
4.06335	46.2404
4.06017	46.3049
4.05699	46.4439
4.05382	46.5459
4.05065	46.492
4.04749	46.4164
4.04433	46.3241
4.04118	46.2372
4.03803	46.1734
4.03489	46.046
4.03175	45.9467
4.02862	45.7925
4.02549	45.7159
4.02237	45.7717
4.01925	45.7319
4.01614	45.6102
4.01303	45.5969
4.00993	45.652
4.00683	45.6931
4.00373	45.7645
4.00064	45.8662
3.99756	45.9459
3.99448	46.0302
3.9914	46.1837
3.98833	46.3673
3.98527	46.5887
3.98221	46.8737
3.97915	47.1548
3.9761	47.406
3.97305	47.6533
3.97001	47.933
3.96697	48.2071
3.96394	48.4431
3.96091	48.7556
3.95789	49.1592
3.95487	49.4829
3.95186	49.7784
3.94885	50.0759
3.94584	50.3917
3.94284	50.6503
3.93984	50.9225
3.93685	51.2073
3.93386	51.3834
3.93088	51.5581
3.9279	51.7351
3.92493	51.84
3.92196	51.9108
3.919	51.951
3.91604	51.9923
3.91308	51.9369
3.91013	51.8919
3.90718	51.8173
3.90424	51.6965
3.9013	51.5355
3.89837	51.3486
3.89544	51.1315
3.89252	50.8865
3.8896	50.6442
3.88668	50.3961
3.88377	50.1853
3.88086	49.9498
3.87796	49.6986
3.87506	49.5417
3.87217	49.3251
3.86928	49.1055
3.86639	48.971
3.86351	48.8371
3.86064	48.7298
3.85776	48.7595
3.8549	48.7939
3.85203	48.7261
3.84917	48.6889
3.84631	48.78
3.84346	48.8306
3.84062	48.8555
3.83777	48.979
3.83494	49.1435
3.8321	49.327
3.82927	49.5097
3.82644	49.6788
3.82362	49.7981
3.82081	50.0305
3.81799	50.2499
3.81518	50.3659
3.81238	50.4461
3.80958	50.5297
3.80678	50.6507
3.80399	50.7003
3.8012	50.7784
3.79841	50.7776
3.79563	50.7174
3.79286	50.6783
3.79008	50.5699
3.78731	50.4185
3.78455	50.2738
3.78179	50.1177
3.77903	49.9535
3.77628	49.7542
3.77353	49.5273
3.77079	49.2795
3.76805	49.0314
3.76531	48.8754
3.76258	48.7703
3.75985	48.5556
3.75713	48.3337
3.7544	48.2183
3.75169	48.1379
3.74898	48.0822
3.74627	48.0359
3.74356	47.9944
3.74086	48.0203
3.73816	48.0599
3.73547	48.0882
3.73278	48.1858
3.7301	48.3615
3.72741	48.5836
3.72474	48.8361
3.72206	49.0093
3.71939	49.3117
3.71673	49.6678
3.71406	49.9808
3.71141	50.3121
3.70875	50.6692
3.7061	51.0919
3.70345	51.5048
3.70081	51.92
3.69817	52.3633
3.69553	52.8601
3.6929	53.3941
3.69027	53.9441
3.68765	54.378
3.68503	54.7846
3.68241	55.2713
3.6798	55.7133
3.67719	56.1523
3.67458	56.5237
3.67198	56.9744
3.66938	57.3968
3.66678	57.7334
3.66419	58.0299
3.66161	58.3693
3.65902	58.6807
3.65644	58.9126
3.65387	59.0555
3.65129	59.2266
3.64872	59.3684
3.64616	59.5041
3.64359	59.6869
3.64103	59.8114
3.63848	59.9169
3.63593	60.0051
3.63338	60.0495
3.63084	60.1106
3.6283	60.1376
3.62576	60.1134
3.62322	60.1578
3.62069	60.2088
3.61817	60.2625
3.61564	60.3238
3.61312	60.3705
3.61061	60.4778
3.6081	60.6059
3.60559	60.6382
3.60308	60.6124
3.60058	60.6633
3.59808	60.8015
3.59558	60.9704
3.59309	61.1088
3.59061	61.1897
3.58812	61.3199
3.58564	61.4827
3.58316	61.6228
3.58069	61.8067
3.57822	62.0813
3.57575	62.2949
3.57328	62.4232
3.57082	62.5484
3.56836	62.6828
3.56591	62.8971
3.56346	63.1541
3.56101	63.3867
3.55857	63.5402
3.55613	63.7647
3.55369	64.0065
3.55126	64.2321
3.54883	64.4772
3.5464	64.7392
3.54397	64.9707
3.54155	65.1373
3.53914	65.2854
3.53672	65.5258
3.53431	65.8027
3.5319	65.9671
3.5295	66.104
3.5271	66.3025
3.5247	66.5076
3.52231	66.7025
3.51991	66.866
3.51753	66.9922
3.51514	67.0849
3.51276	67.1835
3.51038	67.1983
3.50801	67.195
3.50563	67.255
3.50327	67.3945
3.5009	67.5509
3.49854	67.6953
3.49618	67.8869
3.49382	68.1595
3.49147	68.3586
3.48912	68.5022
3.48677	68.6435
3.48443	68.837
3.48209	68.9634
3.47975	68.9841
3.47742	69.1487
3.47509	69.3235
3.47276	69.4667
3.47044	69.5754
3.46812	69.5876
3.4658	69.6401
3.46348	69.7739
3.46117	69.8885
3.45886	69.8956
3.45656	69.8475
3.45425	69.8177
3.45195	69.8007
3.44966	69.7648
3.44736	69.7609
3.44507	69.7167
3.44279	69.633
3.4405	69.5052
3.43822	69.4159
3.43594	69.3213
3.43367	69.1669
3.43139	68.9491
3.42912	68.8321
3.42686	68.701
3.42459	68.4618
3.42233	68.2426
3.42007	68.1771
3.41782	68.0679
3.41557	67.9311
3.41332	67.8472
3.41108	67.8181
3.40883	67.9167
3.40659	67.9328
3.40435	68.0056
3.40212	68.1075
3.39989	68.1622
3.39766	68.1672
3.39544	68.2676
3.39322	68.3
3.391	68.1659
3.38878	68.1033
3.38657	68.1304
3.38436	68.1064
3.38215	68.0361
3.37994	67.9148
3.37774	67.7817
3.37554	67.7646
3.37335	67.8021
3.37115	67.7381
3.36896	67.788
3.36678	67.9064
3.36459	67.9774
3.36241	68.0655
3.36023	68.0768
3.35805	68.0669
3.35588	68.1166
3.35371	68.201
3.35154	68.1877
3.34938	68.0947
3.34721	68.0266
3.34505	67.9353
3.3429	67.8983
3.34074	67.9387
3.33859	67.9168
3.33644	67.8135
3.3343	67.5963
3.33215	67.4972
3.33001	67.4826
3.32788	67.4265
3.32574	67.3027
3.32361	67.2186
3.32148	67.1492
3.31936	67.0454
3.31723	66.904
3.31511	66.7364
3.31299	66.6126
3.31088	66.436
3.30876	66.2117
3.30665	66.129
3.30455	66.0585
3.30244	65.9098
3.30034	65.7082
3.29824	65.5887
3.29614	65.4857
3.29405	65.341
3.29196	65.2172
3.28987	65.1039
3.28778	64.9282
3.2857	64.7906
3.28362	64.5941
3.28154	64.4748
3.27946	64.4145
3.27739	64.3134
3.27532	64.2045
3.27325	64.0925
3.27119	63.9798
3.26913	63.8548
3.26707	63.7868
3.26501	63.6142
3.26295	63.4698
3.2609	63.4731
3.25885	63.4279
3.2568	63.315
3.25476	63.1776
3.25272	63.0309
3.25068	62.9234
3.24864	62.8067
3.24661	62.6497
3.24458	62.4669
3.24255	62.3207
3.24052	62.2125
3.2385	62.1376
3.23648	62.0282
3.23446	61.8833
3.23244	61.8593
3.23043	61.7294
3.22841	61.5237
3.2264	61.4124
3.2244	61.3058
3.22239	61.091
3.22039	60.9061
3.21839	60.7738
3.2164	60.6599
3.2144	60.5589
3.21241	60.4232
3.21042	60.2735
3.20844	60.21
3.20645	60.0381
3.20447	59.8813
3.20249	59.7438
3.20051	59.5715
3.19854	59.4034
3.19657	59.2581
3.1946	59.095
3.19263	58.9891
3.19067	58.81
3.1887	58.5677
3.18674	58.4088
3.18479	58.2959
3.18283	58.1815
3.18088	58.1154
3.17893	58.0242
3.17698	57.8483
3.17504	57.6755
3.17309	57.4453
3.17115	57.2599
3.16921	57.164
3.16728	57.0387
3.16534	56.8742
3.16341	56.6377
3.16148	56.4313
3.15956	56.3197
3.15763	56.1453
3.15571	55.9323
3.15379	55.7181
3.15187	55.4904
3.14996	55.2951
3.14805	55.0458
3.14614	54.7667
3.14423	54.4123
3.14232	54.067
3.14042	53.8217
3.13852	53.6201
3.13662	53.3457
3.13472	53.1145
3.13283	52.9035
3.13094	52.738
3.12905	52.6513
3.12716	52.5601
3.12528	52.4549
3.12339	52.2983
3.12151	52.3092
3.11964	52.3377
3.11776	52.2743
3.11589	52.3152
3.11401	52.3063
3.11214	52.2777
3.11028	52.2656
3.10841	52.2209
3.10655	52.1369
3.10469	52.1456
3.10283	52.1971
3.10098	52.1427
3.09912	52.1199
3.09727	52.1443
3.09542	52.1106
3.09358	51.9801
3.09173	51.8535
3.08989	51.8571
3.08805	51.7878
3.08621	51.6461
3.08437	51.5809
3.08254	51.5631
3.08071	51.4371
3.07888	51.2731
3.07705	51.1834
3.07523	51.0054
3.0734	50.7658
3.07158	50.6617
3.06977	50.6292
3.06795	50.6086
3.06613	50.4459
3.06432	50.292
3.06251	50.1798
3.0607	50.0022
3.0589	49.7104
3.0571	49.5631
3.05529	49.4342
3.05349	49.2523
3.0517	49.0344
3.0499	48.816
3.04811	48.5552
3.04632	48.3454
3.04453	48.1018
3.04274	47.8544
3.04096	47.6673
3.03918	47.5424
3.0374	47.3637
3.03562	47.1646
3.03384	47.0382
3.03207	46.912
3.03029	46.807
3.02852	46.6361
3.02676	46.4178
3.02499	46.3541
3.02323	46.4006
3.02146	46.4165
3.0197	46.2916
3.01795	46.242
3.01619	46.2655
3.01444	46.2585
3.01269	46.2228
3.01094	46.3577
3.00919	46.5284
3.00744	46.6691
3.0057	46.6658
3.00396	46.6331
3.00222	46.7597
3.00048	46.9316
2.99875	46.9742
2.99701	46.9896
2.99528	47.0732
2.99355	47.0805
2.99183	47.0463
2.9901	47.0356
2.98838	47.0699
2.98666	46.9527
2.98494	46.7253
2.98322	46.5932
2.9815	46.4277
2.97979	46.2945
2.97808	45.9132
2.97637	45.4328
2.97466	44.9435
2.97295	44.4431
2.97125	43.8512
2.96955	43.1592
2.96785	42.4797
2.96615	41.7016
2.96446	40.9118
2.96276	40.5016
2.96107	40.2427
2.95938	40.023
2.95769	40.3586
2.95601	40.8423
2.95432	41.2918
2.95264	41.891
2.95096	42.452
2.94928	42.9114
2.9476	43.4092
2.94593	43.9742
2.94425	44.3388
2.94258	44.5674
2.94092	44.7747
2.93925	44.9848
2.93758	45.1035
2.93592	45.245
2.93426	45.3487
2.9326	45.3528
2.93094	45.4208
2.92928	45.5706
2.92763	45.6299
2.92598	45.5671
2.92433	45.5484
2.92268	45.5428
2.92103	45.4844
2.91939	45.378
2.91775	45.3222
2.9161	45.4122
2.91447	45.6046
2.91283	45.6779
2.91119	45.7828
2.90956	45.9815
2.90793	46.1862
2.9063	46.2795
2.90467	46.5444
2.90304	46.9471
2.90142	47.2016
2.89979	47.4185
2.89817	47.626
2.89656	47.8538
2.89494	48.0329
2.89332	48.1816
2.89171	48.4176
2.8901	48.5609
2.88849	48.6372
2.88688	48.7873
2.88527	48.8641
2.88367	48.8317
2.88206	48.7997
2.88046	48.696
2.87886	48.6087
2.87727	48.3293
2.87567	47.7514
2.87408	47.1256
2.87248	46.642
2.87089	46.8391
2.8693	47.5791
2.86772	48.3072
2.86613	49.0244
2.86455	49.7168
2.86297	50.2252
2.86139	50.489
2.85981	50.6555
2.85823	50.8657
2.85666	51.1987
2.85508	51.3674
2.85351	51.4121
2.85194	51.5577
2.85038	51.7814
2.84881	51.8915
2.84724	52.0224
2.84568	52.1548
2.84412	52.2671
2.84256	52.4375
2.841	52.5394
2.83945	52.6462
2.83789	52.8103
2.83634	52.9918
2.83479	53.0443
2.83324	53.1069
2.83169	53.2189
2.83015	53.2597
2.82861	53.3327
2.82706	53.4837
2.82552	53.5366
2.82398	53.5917
2.82245	53.8031
2.82091	54.0663
2.81938	54.3134
2.81784	54.4503
2.81631	54.6251
2.81479	54.7811
2.81326	54.8765
2.81173	55.0631
2.81021	55.2029
2.80869	55.3543
2.80716	55.6075
2.80565	55.8045
2.80413	56.1429
2.80261	56.4973
2.8011	56.4358
2.79959	56.4371
2.79808	56.6373
2.79657	56.7448
2.79506	56.813
2.79355	57.0083
2.79205	57.1612
2.79055	57.3274
2.78904	57.609
2.78754	57.8949
2.78605	57.9642
2.78455	57.8657
2.78306	57.7483
2.78156	57.6425
2.78007	57.7441
2.77858	58.1989
2.77709	58.4589
2.77561	58.38
2.77412	58.2497
2.77264	58.3507
2.77116	58.6923
2.76968	58.7873
2.7682	58.7492
2.76672	58.6048
2.76524	58.4249
2.76377	58.461
2.7623	58.4472
2.76083	58.2358
2.75936	58.1547
2.75789	58.4109
2.75642	59.0659
2.75496	59.1687
2.7535	58.7768
2.75203	58.962
2.75057	59.2325
2.74912	59.6265
2.74766	60.0353
2.7462	60.3414
2.74475	60.6489
2.7433	61.1439
2.74185	61.9531
2.7404	62.6069
2.73895	62.7244
2.7375	62.5658
2.73606	62.8421
2.73462	63.3598
2.73318	63.5911
2.73174	63.8862
2.7303	64.3153
2.72886	64.7107
2.72742	65.2265
2.72599	66.161
2.72456	67.1847
2.72313	67.6011
2.7217	68.2196
2.72027	69.0925
2.71884	69.2695
2.71742	69.649
2.71599	70.1084
2.71457	70.685
2.71315	71.3239
2.71173	72.2042
2.71032	72.7197
2.7089	72.7814
2.70748	72.9768
2.70607	73.2428
2.70466	73.5937
2.70325	74.015
2.70184	74.4961
2.70043	74.7702
2.69903	74.94
2.69762	75.2904
2.69622	75.9068
2.69482	76.625
2.69342	77.0574
2.69202	77.0845
2.69062	77.2757
2.68923	77.5914
2.68783	77.9604
2.68644	78.2208
2.68505	78.5016
2.68366	78.8847
2.68227	78.9725
2.68089	79.1305
2.6795	79.7588
2.67812	80.1489
2.67673	80.4354
2.67535	80.3436
2.67397	80.1402
2.6726	80.3042
2.67122	81.2337
2.66984	81.526
2.66847	81.0558
2.6671	81.5268
2.66572	81.7616
2.66435	81.4215
2.66299	80.9047
2.66162	81.0126
2.66025	81.1904
2.65889	81.1729
2.65753	81.0363
2.65616	81.1187
2.65481	81.1417
2.65345	81.3827
2.65209	81.5751
2.65073	81.3952
2.64938	81.3054
2.64803	81.3771
2.64667	81.5685
2.64532	81.6785
2.64397	81.3796
2.64263	81.4235
2.64128	81.5425
2.63994	81.5065
2.63859	81.5556
2.63725	81.6049
2.63591	81.6449
2.63457	81.9443
2.63323	81.9816
2.6319	82.1384
2.63056	82.4653
2.62923	82.0591
2.62789	81.9962
2.62656	82.2525
2.62523	81.8663
2.6239	81.6743
2.62258	81.7613
2.62125	82.3612
2.61993	82.5011
2.6186	82.1383
2.61728	82.5544
2.61596	82.4886
2.61464	81.9736
2.61332	81.9694
2.61201	81.9392
2.61069	82.0362
2.60938	82.146
2.60807	82.1464
2.60675	82.4956
2.60544	82.8157
2.60414	82.5692
2.60283	82.3311
2.60152	82.1607
2.60022	81.985
2.59891	82.0062
2.59761	82.1991
2.59631	82.8311
2.59501	83.6074
2.59371	83.009
2.59242	82.1563
2.59112	82.0256
2.58983	82.2175
2.58853	82.4368
2.58724	82.5183
2.58595	82.4406
2.58466	82.792
2.58338	82.7424
2.58209	82.3122
2.5808	82.1673
2.57952	81.9006
2.57824	82.0587
2.57695	82.2632
2.57567	82.0665
2.5744	82.2037
2.57312	82.4016
2.57184	82.1787
2.57057	82.3485
2.56929	82.4055
2.56802	82.1341
2.56675	82.0301
2.56548	82.2666
2.56421	82.6181
2.56294	82.7002
2.56168	82.7106
2.56041	82.4597
2.55915	82.1295
2.55789	82.1743
2.55662	82.2773
2.55536	82.1667
2.5541	82.0991
2.55285	82.2275
2.55159	82.3244
2.55034	82.3037
2.54908	82.3168
2.54783	82.3657
2.54658	82.365
2.54533	82.3311
2.54408	82.2986
2.54283	82.3701
2.54159	82.3759
2.54034	82.3813
2.5391	82.4829
2.53785	82.4346
2.53661	82.3796
2.53537	82.3415
2.53413	82.3742
2.53289	82.4742
2.53166	82.4709
2.53042	82.4711
2.52919	82.4007
2.52795	82.3741
2.52672	82.3962
2.52549	82.3882
2.52426	82.384
2.52303	82.5206
2.52181	82.5943
2.52058	82.5458
2.51936	82.5857
2.51813	82.5577
2.51691	82.5159
2.51569	82.5114
2.51447	82.5413
2.51325	82.5347
2.51203	82.5153
2.51082	82.4282
2.5096	82.4348
2.50839	82.5601
2.50717	82.5383
2.50596	82.4596
2.50475	82.4055
2.50354	82.4378
2.50233	82.5308
2.50113	82.5636
2.49992	82.5501
2.49872	82.5298
2.49751	82.5651
2.49631	82.6129
2.49511	82.6332
2.49391	82.6926
2.49271	82.6523
2.49151	82.5509
2.49031	82.576
2.48912	82.6333
2.48792	82.6394
2.48673	82.6271
2.48554	82.6589
2.48435	82.7201
2.48316	82.6917
2.48197	82.6688
2.48078	82.7433
2.4796	82.8228
2.47841	82.7662
2.47723	82.697
2.47604	82.7591
2.47486	82.8248
2.47368	82.8517
2.4725	82.8465
2.47132	82.7611
2.47014	82.7897
2.46897	82.8417
2.46779	82.9457
2.46662	82.9809
2.46545	82.8883
2.46427	82.856
2.4631	82.897
2.46193	82.9281
2.46077	82.9608
2.4596	83.0339
2.45843	82.994
2.45727	82.9466
2.4561	83.0392
2.45494	83.0943
2.45378	83.0198
2.45262	82.9363
2.45146	82.8993
2.4503	82.9841
2.44914	82.9732
2.44799	82.9798
2.44683	83.1884
2.44568	83.2596
2.44452	83.1561
2.44337	83.1474
2.44222	83.1078
2.44107	83.0695
2.43992	83.0105
2.43877	82.969
2.43763	83.0746
2.43648	83.1199
2.43534	83.1689
2.43419	83.1746
2.43305	83.1907
2.43191	83.2011
2.43077	83.19
2.42963	83.1296
2.42849	83.1761
2.42736	83.3552
2.42622	83.3706
2.42509	83.2485
2.42395	83.1764
2.42282	83.2782
2.42169	83.4261
2.42056	83.4737
2.41943	83.5018
2.4183	83.5345
2.41717	83.473
2.41605	83.4585
2.41492	83.4358
2.4138	83.3606
2.41267	83.3663
2.41155	83.3746
2.41043	83.3881
2.40931	83.4098
2.40819	83.5353
2.40707	83.5194
2.40595	83.4376
2.40484	83.4987
2.40372	83.464
2.40261	83.4522
2.4015	83.4504
2.40039	83.4947
2.39928	83.5443
2.39817	83.5438
2.39706	83.5512
2.39595	83.4471
2.39484	83.4953
2.39374	83.5627
2.39263	83.6161
2.39153	83.6763
2.39043	83.5558
2.38932	83.4752
2.38822	83.5021
2.38712	83.454
2.38603	83.4915
2.38493	83.4773
2.38383	83.4251
2.38274	83.4849
2.38164	83.5309
2.38055	83.549
2.37946	83.6047
2.37836	83.7008
2.37727	83.7481
2.37618	83.6799
2.3751	83.6034
2.37401	83.6221
2.37292	83.6054
2.37184	83.5136
2.37075	83.5883
2.36967	83.6142
2.36859	83.5991
2.3675	83.6631
2.36642	83.6743
2.36534	83.7255
2.36427	83.6299
2.36319	83.5075
2.36211	83.5456
2.36104	83.6192
2.35996	83.6539
2.35889	83.6666
2.35781	83.6641
2.35674	83.7354
2.35567	83.7254
2.3546	83.6763
2.35353	83.547
2.35247	83.58
2.3514	83.7869
2.35033	83.7976
2.34927	83.608
2.3482	83.608
2.34714	83.7389
2.34608	83.7539
2.34502	83.7129
2.34396	83.7893
2.3429	83.7532
2.34184	83.7455
2.34078	83.7995
2.33973	83.8251
2.33867	83.8644
2.33762	83.9342
2.33656	83.901
2.33551	83.9061
2.33446	83.8945
2.33341	83.8995
2.33236	83.8201
2.33131	83.8338
2.33026	83.9001
2.32922	83.8456
2.32817	83.8713
2.32712	83.961
2.32608	83.9305
2.32504	83.7721
2.324	83.7972
2.32295	83.9701
2.32191	84.0203
2.32087	83.9352
2.31984	83.9605
2.3188	84.0176
2.31776	83.9178
2.31673	83.9387
2.31569	84.0202
2.31466	84.0155
2.31362	84.0086
2.31259	83.9365
2.31156	83.9427
2.31053	83.9423
2.3095	83.9377
2.30847	84.0104
2.30745	84.0376
2.30642	83.9916
2.3054	83.9923
2.30437	84.0148
2.30335	84.0077
2.30232	84.0714
2.3013	84.1222
2.30028	84.0415
2.29926	83.9895
2.29824	84.0046
2.29722	83.9505
2.29621	83.9451
2.29519	83.9986
2.29417	84.0701
2.29316	84.0509
2.29215	84.0361
2.29113	84.0626
2.29012	84.0658
2.28911	84.0808
2.2881	84.0339
2.28709	84.0325
2.28608	84.1498
2.28507	84.1546
2.28407	84.1323
2.28306	84.1465
2.28206	84.0804
2.28105	84.0781
2.28005	84.1121
2.27905	84.1199
2.27805	84.111
2.27705	84.184
2.27605	84.1467
2.27505	84.0472
2.27405	84.096
2.27305	84.0386
2.27206	83.9838
2.27106	84.0491
2.27007	84.1261
2.26907	84.1432
2.26808	84.1436
2.26709	84.0799
2.2661	84.0959
2.26511	84.0465
2.26412	83.8685
2.26313	83.9549
2.26214	84.0878
2.26116	84.1
2.26017	84.1839
2.25919	84.2094
2.2582	84.1981
2.25722	84.1468
2.25624	84.1841
2.25526	84.3278
2.25428	84.2311
2.2533	84.1216
2.25232	84.1323
2.25134	84.0807
2.25036	83.9813
2.24939	83.9728
2.24841	83.9237
2.24744	84.0241
2.24646	84.057
2.24549	84.0419
2.24452	84.0544
2.24355	84.0182
2.24257	83.9517
2.24161	83.9327
2.24064	83.9645
2.23967	84.0757
2.2387	84.1708
2.23774	84.1559
2.23677	84.1265
2.23581	84.0196
2.23484	83.9434
2.23388	83.9995
2.23292	83.9763
2.23196	83.9954
2.231	84.0954
2.23004	84.0911
2.22908	83.9017
2.22812	83.8147
2.22716	83.9636
2.22621	83.9569
2.22525	83.824
2.2243	84.001
2.22334	84.075
2.22239	84.0171
2.22144	84.0187
2.22049	83.9609
2.21953	83.9837
2.21859	83.9559
2.21764	83.9641
2.21669	83.8774
2.21574	83.8349
2.21479	83.7796
2.21385	83.7904
2.2129	83.8033
2.21196	83.8134
2.21102	83.8645
2.21007	83.8666
2.20913	83.7184
2.20819	83.6794
2.20725	83.7696
2.20631	83.8447
2.20537	83.7688
2.20444	83.6539
2.2035	83.7579
2.20256	83.8202
2.20163	83.8435
2.20069	83.848
2.19976	83.7211
2.19883	83.6768
2.19789	83.7371
2.19696	83.8636
2.19603	83.845
2.1951	83.771
2.19417	83.5662
2.19325	83.5824
2.19232	83.6852
2.19139	83.8171
2.19047	83.8363
2.18954	83.8696
2.18862	83.8403
2.18769	83.8082
2.18677	83.7339
2.18585	83.8084
2.18493	83.9167
2.18401	83.7959
2.18309	83.7062
2.18217	83.6284
2.18125	83.6811
2.18033	83.9138
2.17942	84.019
2.1785	83.9647
2.17759	83.9362
2.17667	84.0288
2.17576	84.0292
2.17485	83.9189
2.17393	83.8031
2.17302	83.806
2.17211	84.0456
2.1712	84.1309
2.17029	84.0409
2.16939	84.0238
2.16848	83.9788
2.16757	84.009
2.16667	84.0699
2.16576	84.1341
2.16486	84.1764
2.16395	84.1978
2.16305	84.257
2.16215	84.3222
2.16125	84.0096
2.16035	83.8462
2.15945	83.9349
2.15855	83.9461
2.15765	83.9215
2.15675	83.9563
2.15586	84.0631
2.15496	84.0417
2.15406	84.0487
2.15317	84.2496
2.15228	84.3655
2.15138	84.329
2.15049	84.1879
2.1496	84.0963
2.14871	84.1097
2.14782	84.258
2.14693	84.1966
2.14604	84.127
2.14515	84.178
2.14427	84.1318
2.14338	84.1062
2.14249	84.1562
2.14161	84.2206
2.14072	84.2073
2.13984	84.0972
2.13896	84.2188
2.13808	84.2032
2.13719	84.2429
2.13631	84.267
2.13543	84.2748
2.13455	84.292
2.13368	84.3229
2.1328	84.2091
2.13192	84.1013
2.13105	84.1854
2.13017	84.2236
2.1293	84.1068
2.12842	84.0998
2.12755	84.095
2.12668	84.1436
2.1258	84.1622
2.12493	84.1567
2.12406	84.2678
2.12319	84.1578
2.12232	83.9704
2.12145	84.1384
2.12059	84.253
2.11972	84.2619
2.11885	84.2514
2.11799	84.1903
2.11712	84.0887
2.11626	84.1931
2.1154	84.1965
2.11453	84.1149
2.11367	84.2011
2.11281	84.2023
2.11195	84.0634
2.11109	83.908
2.11023	84.0388
2.10937	84.1439
2.10851	83.8611
2.10766	83.9114
2.1068	84.1697
2.10594	84.1074
2.10509	84.185
2.10423	84.4371
2.10338	84.3078
2.10253	84.1915
2.10168	84.2295
2.10082	84.2282
2.09997	84.2895
2.09912	84.2764
2.09827	84.1865
2.09742	83.9661
2.09658	84.0955
2.09573	84.1873
2.09488	84.1865
2.09404	84.2651
2.09319	84.1698
2.09235	84.098
2.0915	84.1676
2.09066	84.0682
2.08982	83.7395
2.08897	83.7515
2.08813	83.9296
2.08729	84.1027
2.08645	84.077
2.08561	84.0162
2.08477	84.132
2.08394	84.2316
2.0831	84.0804
2.08226	84.0232
2.08143	83.9839
2.08059	83.8468
2.07976	83.6388
2.07892	83.8316
2.07809	84.1617
2.07726	84.0437
2.07643	83.9034
2.07559	84.3479
2.07476	84.4714
2.07393	84.3744
2.0731	84.1923
2.07228	84.0701
2.07145	84.2155
2.07062	84.3079
2.06979	84.2468
2.06897	83.8663
2.06814	83.6553
2.06732	83.8263
2.06649	84.1236
2.06567	84.1055
2.06485	83.907
2.06403	84.0815
2.0632	84.0865
2.06238	83.8862
2.06156	83.8072
2.06074	83.9229
2.05993	84.1994
2.05911	84.2268
2.05829	83.9773
2.05747	83.9188
2.05666	83.9336
2.05584	83.9937
2.05503	83.927
2.05421	83.8996
2.0534	84.0424
2.05259	84.1238
2.05177	84.0132
2.05096	83.8245
2.05015	83.7008
2.04934	83.7831
2.04853	83.8165
2.04772	83.786
2.04691	83.8111
2.04611	83.8313
2.0453	83.7363
2.04449	83.5944
2.04369	83.6116
2.04288	83.7725
2.04208	83.8165
2.04127	83.7929
2.04047	83.7894
2.03967	83.7169
2.03886	83.8631
2.03806	84.085
2.03726	83.9837
2.03646	83.8031
2.03566	83.8481
2.03486	83.8775
2.03407	83.9114
2.03327	83.8297
2.03247	83.3653
2.03167	83.2155
2.03088	83.6839
2.03008	83.8833
2.02929	83.9665
2.0285	84.02
2.0277	83.8728
2.02691	83.7222
2.02612	83.782
2.02533	83.8845
2.02453	83.851
2.02374	83.8316
2.02295	83.6673
2.02217	83.7227
2.02138	83.8289
2.02059	83.7303
2.0198	83.7886
2.01902	83.6172
2.01823	83.4579
2.01744	83.5426
2.01666	83.4684
2.01588	83.5538
2.01509	83.5061
2.01431	83.4425
2.01353	83.3775
2.01275	83.3937
2.01196	83.4557
2.01118	83.5857
2.0104	83.5745
2.00963	83.4332
2.00885	83.4242
2.00807	83.6739
2.00729	83.6384
2.00651	83.3969
2.00574	83.3496
2.00496	83.4219
2.00419	83.451
2.00341	83.428
2.00264	83.5166
2.00187	83.4108
2.00109	83.2941
2.00032	83.2601
