Name: Cryolite Na_3AlF_6
Type: Mineral
Class: Halides
Subclass: 
Particle Size: 0-45um
Sample No.: H-1A
Owner: JPL
Wavelength range: IR
Origin: Denmark, Greenland, Ivigtut
Collected by Ward's
Description: 





Measurement: Hemispherical reflectance
First Column: X
Second Column: Y
X Units:  Wavelength (micrometers)
Y Units:  Reflectance (percent)
First X Value: 15.3853
Last X Value: 2.00032
Number of X Values: 2256
Additional information: h01aa.txt
 
15.3853	11.6493
15.3397	11.9083
15.2945	12.4196
15.2495	12.8635
15.2048	13.2948
15.1603	13.9009
15.1161	14.2482
15.0722	14.5262
15.0285	14.8812
14.9851	15.3251
14.9419	15.4067
14.8989	15.1974
14.8563	15.1042
14.8138	15.0002
14.7716	14.9412
14.7296	14.7004
14.6879	14.3523
14.6464	14.0236
14.6052	13.7619
14.5641	13.3681
14.5233	12.9223
14.4828	12.3403
14.4424	11.8077
14.4023	11.3375
14.3624	10.9656
14.3227	10.6597
14.2833	10.0654
14.244	9.56389
14.205	9.1877
14.1662	8.81317
14.1276	8.26923
14.0892	7.74085
14.051	7.28872
14.0131	7.09788
13.9753	6.82857
13.9377	6.37637
13.9004	5.95301
13.8632	5.6822
13.8262	5.411
13.7895	4.96895
13.7529	4.59846
13.7165	4.5465
13.6803	4.2625
13.6443	3.89854
13.6085	3.64426
13.5729	3.56126
13.5374	3.46076
13.5022	3.26363
13.4671	3.04474
13.4322	2.64459
13.3975	2.32536
13.363	2.23279
13.3286	2.2928
13.2944	2.25494
13.2604	2.03584
13.2266	1.77573
13.193	1.60164
13.1595	1.42498
13.1262	1.23592
13.093	1.23155
13.06	1.09314
13.0272	0.9805
12.9946	0.955699
12.9621	0.83585
12.9298	0.717471
12.8976	0.598833
12.8656	0.48983
12.8337	0.554429
12.8021	0.54617
12.7705	0.428899
12.7391	0.331818
12.7079	0.267812
12.6769	0.148836
12.6459	0.261773
12.6152	0.500374
12.5845	0.416484
12.5541	0.208802
12.5238	0.00204122
12.4936	-0.05729
12.4635	0.0659363
12.4337	0.180216
12.4039	0.314203
12.3743	0.298601
12.3448	0.249353
12.3155	0.221447
12.2863	0.250396
12.2573	0.24789
12.2284	0.258946
12.1996	0.413366
12.171	0.411693
12.1425	0.347132
12.1141	0.538556
12.0859	0.557094
12.0578	0.493592
12.0298	0.426932
12.0019	0.611059
11.9742	0.759977
11.9466	0.693567
11.9192	0.617001
11.8918	0.72981
11.8646	0.837332
11.8375	1.05855
11.8106	1.20009
11.7837	1.26616
11.757	1.14908
11.7304	1.21489
11.7039	1.41167
11.6776	1.49274
11.6513	1.66217
11.6252	1.79983
11.5992	1.9024
11.5733	2.03735
11.5475	2.13459
11.5219	2.30244
11.4963	2.36917
11.4709	2.48455
11.4455	2.56647
11.4203	2.67851
11.3952	2.67706
11.3702	2.83329
11.3454	3.09407
11.3206	3.21874
11.2959	3.23398
11.2714	3.29528
11.2469	3.32254
11.2226	3.35841
11.1983	3.33087
11.1742	3.29381
11.1502	3.29831
11.1263	3.37034
11.1024	3.4126
11.0787	3.47122
11.0551	3.45355
11.0316	3.46737
11.0081	3.4054
10.9848	3.4024
10.9616	3.60367
10.9385	3.69357
10.9154	3.54224
10.8925	3.45369
10.8697	3.62044
10.8469	3.68078
10.8243	3.56926
10.8017	3.5156
10.7793	3.68651
10.7569	3.80968
10.7346	3.75444
10.7125	3.7115
10.6904	3.75964
10.6684	3.74664
10.6465	3.65693
10.6247	3.59676
10.6029	3.4886
10.5813	3.3981
10.5597	3.2476
10.5383	3.10282
10.5169	2.91644
10.4956	2.73887
10.4744	2.63553
10.4533	2.61684
10.4323	2.42302
10.4113	2.19523
10.3904	2.15913
10.3697	2.14604
10.349	2.09834
10.3284	2.05325
10.3078	2.01691
10.2874	1.97892
10.267	1.96808
10.2467	2.09113
10.2265	2.14213
10.2064	2.07529
10.1863	2.00578
10.1663	2.11405
10.1464	2.27523
10.1266	2.31516
10.1069	2.28923
10.0872	2.6179
10.0676	2.82504
10.0481	2.82035
10.0287	2.84565
10.0093	2.88554
9.99005	2.99018
9.97084	3.28393
9.95169	3.46872
9.93263	3.58678
9.91364	3.84552
9.89472	4.05759
9.87587	4.11195
9.8571	4.30108
9.83839	4.55796
9.81976	4.76977
9.80119	4.98103
9.78271	5.35892
9.76428	5.61945
9.74592	5.77534
9.72764	5.98508
9.70943	6.31486
9.69128	6.60387
9.6732	6.89424
9.65518	7.11812
9.63724	7.35027
9.61935	7.48486
9.60155	7.78791
9.5838	8.10861
9.56611	8.26697
9.5485	8.47597
9.53094	8.65099
9.51345	8.65128
9.49604	8.83584
9.47867	9.00745
9.46137	9.13751
9.44414	9.30082
9.42697	9.48017
9.40986	9.63887
9.39281	9.79368
9.37583	10.0048
9.35891	10.5507
9.34204	11.1387
9.32524	11.6226
9.3085	12.2499
9.29182	13.1033
9.27519	13.9501
9.25863	14.7399
9.24213	15.7092
9.22568	16.7006
9.2093	17.6956
9.19297	18.7896
9.17669	19.9215
9.16048	20.9841
9.14433	22.0281
9.12823	23.1779
9.11218	24.1326
9.0962	25.0165
9.08027	25.76
9.06439	26.3611
9.04858	26.859
9.03281	27.2232
9.0171	27.4673
9.00145	27.6499
8.98585	27.6313
8.9703	27.2605
8.9548	26.6452
8.93937	26.0335
8.92398	25.2514
8.90865	24.329
8.89337	23.517
8.87814	22.8508
8.86296	22.3028
8.84784	21.9502
8.83277	21.5217
8.81774	21.315
8.80277	21.3948
8.78786	21.5638
8.77298	21.8337
8.75816	22.1566
8.7434	22.4305
8.72868	22.8596
8.714	23.3997
8.69938	24.1032
8.68481	24.7051
8.67029	25.4306
8.65581	26.3244
8.64139	27.2966
8.62701	28.2574
8.61268	29.2566
8.5984	30.4069
8.58416	31.4914
8.56997	32.3274
8.55583	33.0896
8.54174	33.6939
8.52769	34.2308
8.51368	34.6598
8.49973	35.0185
8.48582	35.4233
8.47195	35.824
8.45813	36.0554
8.44436	36.3226
8.43062	36.6075
8.41693	37.0046
8.4033	37.3638
8.3897	37.596
8.37614	37.8435
8.36264	38.0642
8.34917	38.2025
8.33574	38.3298
8.32236	38.5631
8.30903	38.8013
8.29573	39.1247
8.28248	39.4502
8.26927	39.6758
8.2561	40.0075
8.24298	40.5526
8.2299	41.0632
8.21685	41.5978
8.20385	42.2812
8.19089	42.9826
8.17797	43.7949
8.16509	44.7425
8.15225	45.8159
8.13946	46.8184
8.1267	47.797
8.11398	48.9162
8.10131	49.9329
8.08867	50.8353
8.07606	51.8057
8.0635	52.6959
8.05099	53.4583
8.0385	54.1292
8.02606	54.8039
8.01366	55.4637
8.00129	56.0497
7.98896	56.5841
7.97667	57.176
7.96442	57.6443
7.9522	58.0014
7.94002	58.3365
7.92788	58.6779
7.91578	59.023
7.90371	59.3331
7.89168	59.5965
7.87969	59.8354
7.86773	60.1341
7.85581	60.3519
7.84392	60.4673
7.83207	60.5634
7.82026	60.6587
7.80849	60.7429
7.79674	60.7964
7.78503	60.8818
7.77337	61.011
7.76173	61.1499
7.75012	61.2428
7.73856	61.3151
7.72703	61.4287
7.71553	61.5244
7.70406	61.623
7.69263	61.6595
7.68123	61.6951
7.66987	61.5977
7.65855	61.4437
7.64725	61.4299
7.63598	61.5394
7.62475	61.5681
7.61356	61.6035
7.60239	61.6773
7.59126	61.8608
7.58017	62.0012
7.5691	62.0461
7.55806	62.1516
7.54707	62.3802
7.5361	62.5404
7.52516	62.6382
7.51425	62.7808
7.50338	62.8479
7.49253	62.8756
7.48172	62.9907
7.47094	63.113
7.46019	63.1116
7.44947	62.8418
7.43879	62.7149
7.42813	62.6761
7.4175	62.6027
7.4069	62.4185
7.39634	62.2245
7.3858	62.1547
7.37529	62.0179
7.36482	61.854
7.35437	61.8424
7.34396	61.9301
7.33357	61.8616
7.32321	61.5218
7.31288	61.4024
7.30258	61.2921
7.29231	61.1419
7.28207	61.2236
7.27185	61.1856
7.26167	60.9076
7.25152	60.8544
7.24139	60.7749
7.23129	60.7842
7.22122	60.8856
7.21117	61.2548
7.20116	61.0588
7.19117	60.5696
7.18121	60.6813
7.17128	61.1072
7.16137	60.8266
7.1515	60.5318
7.14164	60.2196
7.13182	59.7931
7.12203	59.6898
7.11225	59.4014
7.10251	58.8922
7.0928	58.5069
7.08311	58.1927
7.07344	57.9425
7.06381	57.9108
7.0542	58.4253
7.04461	58.6563
7.03506	57.6722
7.02552	57.2049
7.01601	56.8815
7.00653	56.5367
6.99708	56.6151
6.98765	56.4547
6.97824	56.1141
6.96886	56.4514
6.95951	56.8963
6.95018	55.876
6.94087	55.2152
6.9316	55.063
6.92234	55.0398
6.91311	55.1836
6.90391	55.2191
6.89473	54.9645
6.88557	55.0329
6.87644	55.5207
6.86733	57.1128
6.85824	57.2117
6.84918	55.9429
6.84015	55.5673
6.83114	56.2077
6.82215	56.525
6.81319	56.1997
6.80424	56.5701
6.79532	57.9258
6.78643	58.5488
6.77756	58.2301
6.76871	58.1365
6.75989	58.069
6.75109	58.431
6.74231	58.7234
6.73355	59.2345
6.72482	60.0527
6.71611	60.8602
6.70742	61.0873
6.69875	60.8099
6.69011	61.5422
6.68149	62.7211
6.67289	62.8946
6.66431	62.7618
6.65576	62.9454
6.64722	64.5581
6.63871	67.0171
6.63022	66.7615
6.62175	65.6553
6.61331	65.773
6.60488	66.2089
6.59648	67.2752
6.5881	68.043
6.57974	68.9791
6.5714	70.0892
6.56308	69.505
6.55478	69.4927
6.54651	69.606
6.53825	69.5099
6.53001	69.9365
6.5218	71.0359
6.51361	70.8943
6.50544	71.4861
6.49729	73.9067
6.48915	74.4613
6.48104	73.2637
6.47295	72.5064
6.46488	71.8656
6.45683	71.8187
6.4488	71.9687
6.44079	72.2317
6.4328	72.8109
6.42482	73.5638
6.41687	75.6418
6.40894	74.6184
6.40103	71.7681
6.39314	70.9518
6.38526	70.6519
6.37741	70.6877
6.36957	70.8134
6.36176	69.8006
6.35396	69.6988
6.34618	70.7166
6.33843	69.961
6.33069	68.696
6.32297	68.4649
6.31527	68.3401
6.30758	68.2769
6.29992	68.2349
6.29227	68.1603
6.28465	67.974
6.27704	67.9023
6.26945	67.7628
6.26188	67.6063
6.25432	67.5389
6.24679	67.5003
6.23927	67.3496
6.23177	67.2207
6.22429	67.1721
6.21683	67.2373
6.20938	67.1589
6.20195	67.0592
6.19454	67.5681
6.18715	68.9251
6.17978	68.6287
6.17242	67.7958
6.16508	68.267
6.15776	68.6682
6.15045	68.2787
6.14317	68.1718
6.1359	67.7805
6.12864	67.419
6.12141	68.1608
6.11419	69.2798
6.10699	68.2295
6.0998	67.0371
6.09263	66.5893
6.08549	66.5492
6.07835	67.4183
6.07123	67.7714
6.06413	66.6422
6.05705	67.1908
6.04998	69.4043
6.04293	67.3814
6.0359	64.9291
6.02888	64.292
6.02187	64.341
6.01489	64.805
6.00792	64.5264
6.00096	64.5851
5.99403	65.8581
5.98711	66.7883
5.9802	67.0397
5.97331	68.3013
5.96644	69.4249
5.95958	69.5012
5.95274	70.4453
5.94591	72.0451
5.9391	74.5961
5.9323	74.7027
5.92552	73.7935
5.91876	74.1474
5.91201	74.5592
5.90528	75.4225
5.89856	77.4198
5.89186	77.7987
5.88517	78.8154
5.8785	79.3417
5.87184	77.615
5.8652	77.8224
5.85857	77.8548
5.85196	77.6637
5.84536	77.7517
5.83878	78.4131
5.83221	79.5065
5.82566	80.9607
5.81912	81.3117
5.81259	80.2349
5.80608	80.1009
5.79959	80.5535
5.79311	80.7587
5.78665	81.2594
5.78019	81.9292
5.77376	83.1061
5.76734	84.807
5.76093	83.9336
5.75453	83.1318
5.74815	83.8808
5.74179	83.7703
5.73543	83.7396
5.7291	83.8437
5.72277	84.2381
5.71646	84.7753
5.71017	85.1317
5.70389	84.4057
5.69762	84.2154
5.69136	84.5284
5.68513	84.3968
5.6789	84.8239
5.67268	84.8939
5.66648	84.3262
5.6603	84.6375
5.65413	85.063
5.64797	85.5482
5.64182	86.2188
5.63569	85.4155
5.62957	84.7482
5.62347	84.7764
5.61737	85.0501
5.61129	85.0411
5.60522	85.1715
5.59917	85.2354
5.59313	85.0113
5.5871	85.3804
5.58109	86.1631
5.57509	85.8864
5.5691	85.0484
5.56312	84.9633
5.55716	85.225
5.55121	85.3744
5.54528	85.1645
5.53935	85.0642
5.53344	85.0831
5.52754	85.3804
5.52166	85.6154
5.51578	85.606
5.50992	85.6418
5.50407	85.8921
5.49823	85.9628
5.49241	86.0411
5.4866	86.2396
5.4808	86.6915
5.47501	86.688
5.46923	86.9044
5.46347	87.2281
5.45772	86.8587
5.45198	86.7038
5.44625	86.7677
5.44054	86.7856
5.43484	86.8411
5.42914	87.2547
5.42347	88.0214
5.4178	87.6623
5.41214	87.0802
5.4065	86.9516
5.40087	86.875
5.39525	86.9139
5.38964	86.9385
5.38404	87.008
5.37846	87.0859
5.37288	87.1081
5.36732	87.148
5.36177	87.2329
5.35623	87.5812
5.35071	87.9179
5.34519	87.5002
5.33968	87.1176
5.33419	87.0979
5.32871	87.0456
5.32324	87.0496
5.31778	87.0724
5.31233	87.093
5.30689	87.1398
5.30147	87.1036
5.29605	87.2775
5.29065	87.4047
5.28525	87.1594
5.27987	87.1482
5.2745	87.1283
5.26914	87.0549
5.26379	87.0219
5.25845	87.0329
5.25312	87.0167
5.24781	86.9946
5.2425	87.0318
5.23721	87.0879
5.23192	86.9646
5.22665	86.8257
5.22138	86.8288
5.21613	87.1457
5.21089	87.0948
5.20566	86.7879
5.20044	86.7362
5.19522	86.581
5.19002	86.4877
5.18483	86.424
5.17965	86.3984
5.17448	86.4086
5.16933	86.4215
5.16418	86.3905
5.15904	86.4017
5.15391	86.5128
5.14879	86.7398
5.14368	86.6389
5.13859	86.5069
5.1335	86.5447
5.12842	86.5671
5.12335	86.6414
5.1183	86.6515
5.11325	86.6754
5.10821	86.7205
5.10318	86.7698
5.09817	86.8552
5.09316	86.9527
5.08816	86.9709
5.08317	86.9653
5.07819	86.9063
5.07322	86.9214
5.06826	86.9226
5.06331	86.9393
5.05837	86.9222
5.05344	86.9387
5.04852	86.9303
5.04361	86.9024
5.03871	86.9008
5.03382	86.9393
5.02894	86.966
5.02406	87.0028
5.0192	87.0274
5.01435	86.9574
5.0095	86.9259
5.00467	86.9362
4.99984	86.9703
4.99502	87.0138
4.99021	87.0372
4.98542	87.0441
4.98063	87.0709
4.97585	87.1426
4.97108	87.0909
4.96632	87.0395
4.96156	87.1039
4.95682	87.2106
4.95209	87.2574
4.94736	87.2338
4.94264	87.2471
4.93794	87.2557
4.93324	87.2532
4.92855	87.302
4.92387	87.3194
4.9192	87.378
4.91453	87.3942
4.90988	87.3835
4.90524	87.3563
4.9006	87.376
4.89597	87.3697
4.89135	87.4006
4.88674	87.4081
4.88214	87.3177
4.87755	87.2945
4.87296	87.3986
4.86839	87.4465
4.86382	87.4581
4.85926	87.4614
4.85471	87.4385
4.85017	87.3978
4.84564	87.4358
4.84111	87.5476
4.8366	87.6176
4.83209	87.6199
4.82759	87.6265
4.8231	87.6152
4.81862	87.6199
4.81415	87.6542
4.80968	87.6964
4.80522	87.7491
4.80077	87.8256
4.79633	87.828
4.7919	87.8593
4.78747	87.8605
4.78306	87.9034
4.77865	87.9899
4.77425	88.0221
4.76986	87.9756
4.76547	87.9966
4.7611	88.0167
4.75673	88.0066
4.75237	88.0341
4.74802	88.0904
4.74367	88.0529
4.73934	88.0922
4.73501	88.1698
4.73069	88.1487
4.72638	88.0589
4.72207	88.0299
4.71777	87.9912
4.71348	87.9167
4.7092	87.9873
4.70493	88.0066
4.70066	87.9457
4.69641	87.913
4.69216	87.772
4.68791	87.6782
4.68368	87.6465
4.67945	87.5792
4.67523	87.4732
4.67102	87.3896
4.66682	87.345
4.66262	87.3207
4.65843	87.2376
4.65425	87.1461
4.65007	87.0851
4.64591	87.0509
4.64175	86.9993
4.6376	86.964
4.63345	87.0036
4.62932	87.0519
4.62519	87.0269
4.62106	87.0087
4.61695	87.0105
4.61284	87.0919
4.60874	87.1232
4.60465	87.1785
4.60056	87.2818
4.59648	87.4029
4.59241	87.4442
4.58835	87.5041
4.58429	87.5862
4.58024	87.6952
4.5762	87.8095
4.57216	87.936
4.56814	88.0987
4.56411	88.2161
4.5601	88.2791
4.55609	88.3827
4.55209	88.4669
4.5481	88.5072
4.54411	88.5992
4.54013	88.7452
4.53616	88.8333
4.5322	88.8867
4.52824	88.8777
4.52429	88.9033
4.52034	88.9939
4.51641	89.0435
4.51247	89.0836
4.50855	89.1383
4.50463	89.1767
4.50072	89.1984
4.49682	89.2392
4.49292	89.2874
4.48903	89.2937
4.48515	89.3589
4.48127	89.4106
4.4774	89.3858
4.47354	89.3857
4.46968	89.4607
4.46584	89.4611
4.46199	89.4347
4.45815	89.4191
4.45432	89.4689
4.4505	89.4931
4.44668	89.4824
4.44287	89.4592
4.43907	89.5038
4.43527	89.5098
4.43148	89.5077
4.4277	89.5252
4.42392	89.5755
4.42015	89.5558
4.41638	89.5496
4.41262	89.5283
4.40887	89.5486
4.40513	89.6088
4.40139	89.607
4.39765	89.6293
4.39393	89.6675
4.39021	89.6642
4.38649	89.7103
4.38278	89.7487
4.37908	89.7255
4.37539	89.7522
4.3717	89.8776
4.36801	89.9289
4.36434	89.9265
4.36067	89.9149
4.357	89.95
4.35335	89.9859
4.34969	90.0033
4.34605	90.0288
4.34241	90.0305
4.33877	90.0313
4.33514	90.1073
4.33152	90.1206
4.32791	90.054
4.3243	90.0628
4.32069	90.0988
4.3171	90.1401
4.31351	90.1724
4.30992	90.1858
4.30634	90.2174
4.30277	90.2242
4.2992	90.269
4.29564	90.2745
4.29208	90.2213
4.28853	90.1426
4.28499	90.0638
4.28145	90.0374
4.27792	89.8596
4.27439	89.4857
4.27087	89.0646
4.26735	88.8828
4.26384	88.9692
4.26034	89.1924
4.25684	89.4505
4.25335	89.6814
4.24986	89.9893
4.24638	90.3584
4.24291	90.5794
4.23944	90.6864
4.23598	90.7349
4.23252	90.8195
4.22906	90.856
4.22562	90.8657
4.22218	90.8667
4.21874	90.7989
4.21531	90.7582
4.21189	90.7224
4.20847	90.6792
4.20506	90.6033
4.20165	90.611
4.19825	90.6326
4.19485	90.6035
4.19146	90.596
4.18807	90.6525
4.18469	90.7164
4.18132	90.7211
4.17795	90.7511
4.17458	90.8048
4.17123	90.8454
4.16787	90.8881
4.16453	90.9106
4.16118	90.922
4.15785	90.9146
4.15451	90.9474
4.15119	90.9979
4.14787	91.0574
4.14455	91.0819
4.14124	91.0616
4.13794	91.0474
4.13464	91.0885
4.13134	91.1035
4.12805	91.1046
4.12477	91.1033
4.12149	91.1225
4.11822	91.1588
4.11495	91.1518
4.11168	91.1087
4.10843	91.1024
4.10517	91.1111
4.10192	91.1175
4.09868	91.1042
4.09545	91.0946
4.09221	91.1359
4.08899	91.1838
4.08576	91.1955
4.08255	91.1382
4.07933	91.0685
4.07613	91.0451
4.07292	91.0244
4.06973	91.0057
4.06654	90.9921
4.06335	91.0001
4.06017	90.9991
4.05699	90.9462
4.05382	90.8623
4.05065	90.8668
4.04749	90.8847
4.04433	90.8554
4.04118	90.7995
4.03803	90.7527
4.03489	90.6299
4.03175	90.4855
4.02862	90.4194
4.02549	90.3275
4.02237	90.2231
4.01925	90.2006
4.01614	90.1917
4.01303	90.1843
4.00993	90.1639
4.00683	90.2163
4.00373	90.2479
4.00064	90.2665
3.99756	90.2963
3.99448	90.3607
3.9914	90.3959
3.98833	90.3723
3.98527	90.4011
3.98221	90.4888
3.97915	90.5129
3.9761	90.5176
3.97305	90.5728
3.97001	90.6182
3.96697	90.6418
3.96394	90.6343
3.96091	90.6458
3.95789	90.7382
3.95487	90.8311
3.95186	90.8671
3.94885	90.8784
3.94584	90.921
3.94284	90.9861
3.93984	90.9893
3.93685	90.9595
3.93386	90.9564
3.93088	90.9587
3.9279	90.9292
3.92493	90.9665
3.92196	91.0026
3.919	91.028
3.91604	91.0687
3.91308	91.0707
3.91013	91.1072
3.90718	91.1379
3.90424	91.1121
3.9013	91.1036
3.89837	91.1022
3.89544	91.0677
3.89252	91.1047
3.8896	91.1161
3.88668	91.1376
3.88377	91.1564
3.88086	91.1564
3.87796	91.1968
3.87506	91.2523
3.87217	91.2301
3.86928	91.216
3.86639	91.1827
3.86351	91.1865
3.86064	91.182
3.85776	91.1765
3.8549	91.2219
3.85203	91.2186
3.84917	91.1976
3.84631	91.1409
3.84346	91.1294
3.84062	91.1931
3.83777	91.1774
3.83494	91.1733
3.8321	91.223
3.82927	91.2514
3.82644	91.1923
3.82362	91.1835
3.82081	91.2354
3.81799	91.2768
3.81518	91.3303
3.81238	91.3001
3.80958	91.2574
3.80678	91.2694
3.80399	91.2876
3.8012	91.2889
3.79841	91.3007
3.79563	91.3592
3.79286	91.3149
3.79008	91.3112
3.78731	91.3896
3.78455	91.3988
3.78179	91.3583
3.77903	91.3528
3.77628	91.3402
3.77353	91.3482
3.77079	91.3273
3.76805	91.2958
3.76531	91.2946
3.76258	91.2958
3.75985	91.2823
3.75713	91.2906
3.7544	91.3018
3.75169	91.2715
3.74898	91.1963
3.74627	91.1405
3.74356	91.1271
3.74086	91.1919
3.73816	91.2489
3.73547	91.2416
3.73278	91.2239
3.7301	91.1921
3.72741	91.1275
3.72474	91.1253
3.72206	91.1126
3.71939	91.0658
3.71673	91.0006
3.71406	90.9964
3.71141	91.0723
3.70875	91.0595
3.7061	90.9025
3.70345	90.8129
3.70081	90.8403
3.69817	90.8616
3.69553	90.8197
3.6929	90.8085
3.69027	90.8642
3.68765	90.8383
3.68503	90.7721
3.68241	90.7915
3.6798	90.7808
3.67719	90.7648
3.67458	90.7985
3.67198	90.7855
3.66938	90.7363
3.66678	90.6557
3.66419	90.6786
3.66161	90.7024
3.65902	90.6718
3.65644	90.6418
3.65387	90.6487
3.65129	90.6047
3.64872	90.5625
3.64616	90.5523
3.64359	90.5379
3.64103	90.4444
3.63848	90.3356
3.63593	90.3384
3.63338	90.4314
3.63084	90.4651
3.6283	90.3635
3.62576	90.2794
3.62322	90.2974
3.62069	90.3343
3.61817	90.3203
3.61564	90.2828
3.61312	90.2484
3.61061	90.244
3.6081	90.1937
3.60559	90.1585
3.60308	90.1245
3.60058	90.0969
3.59808	90.0726
3.59558	90.0497
3.59309	89.9573
3.59061	89.8543
3.58812	89.8275
3.58564	89.7878
3.58316	89.6851
3.58069	89.5746
3.57822	89.5027
3.57575	89.4223
3.57328	89.2855
3.57082	89.2154
3.56836	89.1826
3.56591	89.1069
3.56346	89.0576
3.56101	89.0048
3.55857	88.9601
3.55613	88.9689
3.55369	88.9312
3.55126	88.8586
3.54883	88.8074
3.5464	88.7851
3.54397	88.782
3.54155	88.7309
3.53914	88.6661
3.53672	88.6367
3.53431	88.5527
3.5319	88.4682
3.5295	88.3924
3.5271	88.287
3.5247	88.1932
3.52231	88.0638
3.51991	87.8784
3.51753	87.6509
3.51514	87.442
3.51276	87.1718
3.51038	86.7855
3.50801	86.46
3.50563	86.2474
3.50327	86.1023
3.5009	86.0868
3.49854	86.1354
3.49618	86.2237
3.49382	86.254
3.49147	86.3334
3.48912	86.4372
3.48677	86.4902
3.48443	86.4926
3.48209	86.428
3.47975	86.3903
3.47742	86.3739
3.47509	86.3522
3.47276	86.3497
3.47044	86.3231
3.46812	86.295
3.4658	86.2685
3.46348	86.263
3.46117	86.2729
3.45886	86.255
3.45656	86.242
3.45425	86.1282
3.45195	86.0587
3.44966	85.9979
3.44736	85.8727
3.44507	85.7604
3.44279	85.6228
3.4405	85.4957
3.43822	85.3064
3.43594	85.0772
3.43367	84.9212
3.43139	84.6027
3.42912	84.3239
3.42686	84.141
3.42459	83.9089
3.42233	83.6891
3.42007	83.4683
3.41782	83.3728
3.41557	83.3405
3.41332	83.3021
3.41108	83.4158
3.40883	83.5479
3.40659	83.6908
3.40435	83.8521
3.40212	83.9683
3.39989	83.9873
3.39766	84.1048
3.39544	84.2261
3.39322	84.3216
3.391	84.4416
3.38878	84.5002
3.38657	84.4826
3.38436	84.4129
3.38215	84.3282
3.37994	84.1412
3.37774	83.9899
3.37554	83.973
3.37335	83.9245
3.37115	83.9684
3.36896	84.0677
3.36678	84.1026
3.36459	84.1429
3.36241	84.2455
3.36023	84.3372
3.35805	84.4062
3.35588	84.4734
3.35371	84.4985
3.35154	84.4761
3.34938	84.5479
3.34721	84.603
3.34505	84.6564
3.3429	84.7728
3.34074	84.8294
3.33859	84.8536
3.33644	84.8048
3.3343	84.7667
3.33215	84.8402
3.33001	84.8845
3.32788	84.8235
3.32574	84.774
3.32361	84.8124
3.32148	84.784
3.31936	84.6889
3.31723	84.6424
3.31511	84.6578
3.31299	84.68
3.31088	84.6116
3.30876	84.4779
3.30665	84.4221
3.30455	84.4569
3.30244	84.4265
3.30034	84.3647
3.29824	84.3314
3.29614	84.2321
3.29405	84.0917
3.29196	84.058
3.28987	84.0581
3.28778	83.9134
3.2857	83.7888
3.28362	83.7794
3.28154	83.75
3.27946	83.7052
3.27739	83.6648
3.27532	83.6389
3.27325	83.5973
3.27119	83.4905
3.26913	83.3542
3.26707	83.2065
3.26501	83.125
3.26295	83.1229
3.2609	83.0964
3.25885	83.0661
3.2568	82.9525
3.25476	82.7982
3.25272	82.7537
3.25068	82.7241
3.24864	82.6904
3.24661	82.5708
3.24458	82.4394
3.24255	82.4196
3.24052	82.4039
3.2385	82.3777
3.23648	82.3216
3.23446	82.1968
3.23244	82.1296
3.23043	82.0921
3.22841	82.0186
3.2264	81.9801
3.2244	81.8579
3.22239	81.7216
3.22039	81.6694
3.21839	81.5898
3.2164	81.4913
3.2144	81.3764
3.21241	81.2797
3.21042	81.2085
3.20844	81.1083
3.20645	81.0286
3.20447	80.9493
3.20249	80.8996
3.20051	80.7439
3.19854	80.6625
3.19657	80.619
3.1946	80.5244
3.19263	80.4183
3.19067	80.2893
3.1887	80.1856
3.18674	80.119
3.18479	80.1109
3.18283	79.9592
3.18088	79.7601
3.17893	79.6757
3.17698	79.6703
3.17504	79.5929
3.17309	79.4756
3.17115	79.362
3.16921	79.2648
3.16728	79.2174
3.16534	79.1807
3.16341	79.0305
3.16148	78.9057
3.15956	78.8241
3.15763	78.7693
3.15571	78.6279
3.15379	78.4315
3.15187	78.33
3.14996	78.2854
3.14805	78.2372
3.14614	78.1315
3.14423	78.0142
3.14232	78.0234
3.14042	77.9064
3.13852	77.7228
3.13662	77.6008
3.13472	77.4622
3.13283	77.3233
3.13094	77.2489
3.12905	77.1331
3.12716	76.991
3.12528	76.9473
3.12339	76.8911
3.12151	76.7469
3.11964	76.6401
3.11776	76.5575
3.11589	76.4317
3.11401	76.3423
3.11214	76.2367
3.11028	76.1595
3.10841	76.0338
3.10655	75.9062
3.10469	75.8554
3.10283	75.8544
3.10098	75.7931
3.09912	75.6553
3.09727	75.5531
3.09542	75.5306
3.09358	75.5113
3.09173	75.4725
3.08989	75.395
3.08805	75.2616
3.08621	75.2084
3.08437	75.2001
3.08254	75.1431
3.08071	74.9884
3.07888	74.8517
3.07705	74.8197
3.07523	74.7908
3.0734	74.7317
3.07158	74.5813
3.06977	74.4606
3.06795	74.4337
3.06613	74.3397
3.06432	74.2625
3.06251	74.252
3.0607	74.0569
3.0589	73.9836
3.0571	74.0073
3.05529	73.9791
3.05349	73.8801
3.0517	73.7995
3.0499	73.6806
3.04811	73.5401
3.04632	73.3758
3.04453	73.328
3.04274	73.2766
3.04096	73.1105
3.03918	73.0605
3.0374	73.0214
3.03562	72.8677
3.03384	72.6977
3.03207	72.6031
3.03029	72.4811
3.02852	72.3875
3.02676	72.2598
3.02499	72.1841
3.02323	72.1122
3.02146	71.9731
3.0197	71.8322
3.01795	71.7664
3.01619	71.7032
3.01444	71.6501
3.01269	71.579
3.01094	71.4438
3.00919	71.329
3.00744	71.2193
3.0057	71.1302
3.00396	71.0455
3.00222	70.8791
3.00048	70.8213
2.99875	70.9041
2.99701	70.8402
2.99528	70.576
2.99355	70.4416
2.99183	70.5083
2.9901	70.5812
2.98838	70.5118
2.98666	70.4352
2.98494	70.4131
2.98322	70.2612
2.9815	70.1513
2.97979	70.0421
2.97808	69.9613
2.97637	69.9522
2.97466	69.8756
2.97295	69.7496
2.97125	69.7849
2.96955	69.5932
2.96785	69.442
2.96615	69.395
2.96446	69.4004
2.96276	69.3351
2.96107	69.2438
2.95938	69.2279
2.95769	69.1319
2.95601	69.0817
2.95432	69.1004
2.95264	69.0707
2.95096	68.9726
2.94928	68.8332
2.9476	68.7063
2.94593	68.5652
2.94425	68.4469
2.94258	68.3063
2.94092	68.2078
2.93925	68.1108
2.93758	67.9618
2.93592	67.7473
2.93426	67.4861
2.9326	67.3048
2.93094	67.2318
2.92928	67.0833
2.92763	66.9032
2.92598	66.7161
2.92433	66.6704
2.92268	66.5712
2.92103	66.2488
2.91939	66.0796
2.91775	65.9932
2.9161	65.7955
2.91447	65.5575
2.91283	65.4482
2.91119	65.3254
2.90956	65.2237
2.90793	65.1005
2.9063	64.9249
2.90467	64.8177
2.90304	64.8766
2.90142	64.9054
2.89979	64.8464
2.89817	64.7427
2.89656	64.6807
2.89494	64.6351
2.89332	64.7456
2.89171	64.7757
2.8901	64.668
2.88849	64.7743
2.88688	64.9111
2.88527	64.9249
2.88367	64.9895
2.88206	65.0721
2.88046	65.2705
2.87886	65.5451
2.87727	65.7216
2.87567	65.8198
2.87408	65.9583
2.87248	66.1803
2.87089	66.2737
2.8693	66.3641
2.86772	66.4458
2.86613	66.615
2.86455	66.7693
2.86297	66.7298
2.86139	66.7258
2.85981	66.8013
2.85823	66.7644
2.85666	66.7166
2.85508	66.7533
2.85351	66.689
2.85194	66.4841
2.85038	66.3839
2.84881	66.2749
2.84724	66.031
2.84568	65.7641
2.84412	65.4568
2.84256	65.2377
2.841	65.083
2.83945	65.0402
2.83789	65.0392
2.83634	64.9748
2.83479	64.9818
2.83324	65.0487
2.83169	65.1308
2.83015	65.2804
2.82861	65.4926
2.82706	65.5795
2.82552	65.6641
2.82398	65.888
2.82245	66.1889
2.82091	66.5149
2.81938	66.6848
2.81784	66.6424
2.81631	66.7444
2.81479	67.0135
2.81326	67.2052
2.81173	67.3577
2.81021	67.6025
2.80869	67.8884
2.80716	68.1826
2.80565	68.4298
2.80413	68.9743
2.80261	69.2281
2.8011	68.8287
2.79959	68.754
2.79808	69.0941
2.79657	69.5019
2.79506	69.7557
2.79355	70.097
2.79205	70.5319
2.79055	70.9044
2.78904	71.6051
2.78754	72.4411
2.78605	72.5033
2.78455	72.189
2.78306	72.4662
2.78156	72.9223
2.78007	73.0984
2.77858	73.2454
2.77709	73.564
2.77561	73.7573
2.77412	73.8852
2.77264	74.2676
2.77116	74.8209
2.76968	74.9365
2.7682	75.0564
2.76672	75.0073
2.76524	75.2452
2.76377	76.2058
2.7623	76.6366
2.76083	76.293
2.75936	76.4121
2.75789	77.0291
2.75642	78.4847
2.75496	79.1141
2.7535	78.0143
2.75203	77.8576
2.75057	78.0465
2.74912	78.3165
2.74766	78.5806
2.7462	78.7712
2.74475	79.0355
2.7433	79.703
2.74185	81.0281
2.7404	82.1687
2.73895	81.9277
2.7375	80.8792
2.73606	81.1724
2.73462	81.8887
2.73318	81.5059
2.73174	81.4911
2.7303	81.8298
2.72886	82.0419
2.72742	82.4349
2.72599	83.6046
2.72456	84.7065
2.72313	84.2616
2.7217	84.9969
2.72027	86.0088
2.71884	84.7867
2.71742	84.3744
2.71599	84.2916
2.71457	84.4339
2.71315	84.827
2.71173	86.2147
2.71032	86.6852
2.7089	85.9359
2.70748	85.3011
2.70607	85.1536
2.70466	85.1181
2.70325	85.2309
2.70184	85.7462
2.70043	85.7951
2.69903	85.6718
2.69762	85.927
2.69622	86.6305
2.69482	87.5713
2.69342	87.8424
2.69202	87.109
2.69062	86.9852
2.68923	87.3422
2.68783	87.6646
2.68644	88.1062
2.68505	88.3573
2.68366	88.6303
2.68227	88.4197
2.68089	88.6697
2.6795	89.8739
2.67812	90.3633
2.67673	90.6901
2.67535	90.1104
2.67397	89.5753
2.6726	89.9515
2.67122	91.9597
2.66984	92.2407
2.66847	90.98
2.6671	92.0899
2.66572	92.5089
2.66435	91.6637
2.66299	90.4783
2.66162	90.4851
2.66025	90.7502
2.65889	90.5542
2.65753	90.1962
2.65616	90.7465
2.65481	90.8556
2.65345	91.0739
2.65209	91.203
2.65073	90.6148
2.64938	90.2849
2.64803	90.4355
2.64667	90.9385
2.64532	91.1731
2.64397	90.7236
2.64263	90.8461
2.64128	90.9131
2.63994	90.853
2.63859	90.8832
2.63725	90.987
2.63591	91.0676
2.63457	91.5152
2.63323	91.6223
2.6319	92.0325
2.63056	93.0723
2.62923	92.2274
2.62789	91.9474
2.62656	92.6076
2.62523	91.7691
2.6239	91.2605
2.62258	91.2674
2.62125	92.3821
2.61993	92.8714
2.6186	92.2924
2.61728	93.0147
2.61596	92.4332
2.61464	91.4124
2.61332	91.4667
2.61201	91.3709
2.61069	91.6496
2.60938	91.9961
2.60807	92.1027
2.60675	92.6482
2.60544	93.3361
2.60414	92.7866
2.60283	92.2137
2.60152	92.0135
2.60022	91.7049
2.59891	91.5014
2.59761	91.9794
2.59631	93.7482
2.59501	95.8642
2.59371	94.3784
2.59242	92.4129
2.59112	91.975
2.58983	92.327
2.58853	92.789
2.58724	92.9714
2.58595	92.5718
2.58466	93.2974
2.58338	93.4172
2.58209	92.7161
2.5808	92.7503
2.57952	92.1525
2.57824	92.3564
2.57695	92.9519
2.57567	92.6973
2.5744	93.0741
2.57312	93.4227
2.57184	92.624
2.57057	92.9004
2.56929	93.1466
2.56802	92.6116
2.56675	92.3653
2.56548	92.8331
2.56421	93.4512
2.56294	93.5824
2.56168	93.6385
2.56041	93.1127
2.55915	92.4343
2.55789	92.2223
2.55662	92.2708
2.55536	92.3466
2.5541	92.5549
2.55285	92.8353
2.55159	92.7261
2.55034	92.488
2.54908	92.4847
2.54783	92.6536
2.54658	92.431
2.54533	92.3882
2.54408	92.6474
2.54283	92.757
2.54159	92.4927
2.54034	92.409
2.5391	92.4334
2.53785	92.3683
2.53661	92.5037
2.53537	92.5801
2.53413	92.5808
2.53289	92.7177
2.53166	92.6726
2.53042	92.6137
2.52919	92.5818
2.52795	92.5572
2.52672	92.4944
2.52549	92.5758
2.52426	92.6814
2.52303	92.5986
2.52181	92.4623
2.52058	92.5121
2.51936	92.5258
2.51813	92.498
2.51691	92.5867
2.51569	92.583
2.51447	92.4431
2.51325	92.3699
2.51203	92.4682
2.51082	92.5656
2.5096	92.5369
2.50839	92.5832
2.50717	92.5254
2.50596	92.467
2.50475	92.4699
2.50354	92.4208
2.50233	92.416
2.50113	92.4613
2.49992	92.487
2.49872	92.4318
2.49751	92.4749
2.49631	92.4527
2.49511	92.4262
2.49391	92.301
2.49271	92.264
2.49151	92.3369
2.49031	92.271
2.48912	92.165
2.48792	92.1487
2.48673	92.1185
2.48554	92.0908
2.48435	92.0139
2.48316	91.9387
2.48197	91.7527
2.48078	91.6025
2.4796	91.5447
2.47841	91.5909
2.47723	91.5508
2.47604	91.4953
2.47486	91.5095
2.47368	91.5067
2.4725	91.5977
2.47132	91.6477
2.47014	91.5404
2.46897	91.3998
2.46779	91.3509
2.46662	91.4441
2.46545	91.5614
2.46427	91.7351
2.4631	91.8312
2.46193	91.8004
2.46077	91.7355
2.4596	91.678
2.45843	91.689
2.45727	91.7989
2.4561	91.8856
2.45494	91.9979
2.45378	91.9669
2.45262	91.968
2.45146	91.954
2.4503	91.935
2.44914	91.9654
2.44799	92.0362
2.44683	92.0681
2.44568	92.0897
2.44452	92.1691
2.44337	92.2851
2.44222	92.161
2.44107	92.087
2.43992	92.1332
2.43877	92.2315
2.43763	92.2507
2.43648	92.2109
2.43534	92.249
2.43419	92.2708
2.43305	92.2158
2.43191	92.276
2.43077	92.2213
2.42963	92.2341
2.42849	92.2613
2.42736	92.2846
2.42622	92.2776
2.42509	92.3128
2.42395	92.33
2.42282	92.2709
2.42169	92.1093
2.42056	92.1292
2.41943	92.1779
2.4183	92.1494
2.41717	92.1105
2.41605	92.0885
2.41492	92.0859
2.4138	92.0416
2.41267	91.9736
2.41155	91.8693
2.41043	91.8731
2.40931	92.0264
2.40819	92.0468
2.40707	91.9569
2.40595	91.918
2.40484	91.9206
2.40372	91.9775
2.40261	92.0219
2.4015	92.1083
2.40039	92.1039
2.39928	92.0528
2.39817	92.0349
2.39706	92.0129
2.39595	92.0358
2.39484	92.1077
2.39374	92.2211
2.39263	92.2725
2.39153	92.2653
2.39043	92.2675
2.38932	92.2219
2.38822	92.3135
2.38712	92.4354
2.38603	92.3348
2.38493	92.3238
2.38383	92.3523
2.38274	92.3283
2.38164	92.4219
2.38055	92.5129
2.37946	92.6411
2.37836	92.7874
2.37727	92.7655
2.37618	92.5864
2.3751	92.5256
2.37401	92.6114
2.37292	92.7384
2.37184	92.7929
2.37075	92.8513
2.36967	92.9447
2.36859	92.9463
2.3675	92.9399
2.36642	92.9595
2.36534	93.0572
2.36427	93.1696
2.36319	93.1124
2.36211	93.09
2.36104	93.1303
2.35996	93.0627
2.35889	93.0419
2.35781	93.1352
2.35674	93.2182
2.35567	93.1527
2.3546	93.1854
2.35353	93.2864
2.35247	93.3518
2.3514	93.2857
2.35033	93.2058
2.34927	93.3246
2.3482	93.4463
2.34714	93.3574
2.34608	93.4072
2.34502	93.4185
2.34396	93.4405
2.3429	93.5526
2.34184	93.6433
2.34078	93.7815
2.33973	93.8326
2.33867	93.858
2.33762	93.9201
2.33656	93.9555
2.33551	93.9994
2.33446	94.0565
2.33341	94.1148
2.33236	94.1468
2.33131	94.0702
2.33026	94.0547
2.32922	94.1788
2.32817	94.3204
2.32712	94.3581
2.32608	94.3234
2.32504	94.2987
2.324	94.4436
2.32295	94.6104
2.32191	94.6586
2.32087	94.5191
2.31984	94.4255
2.3188	94.4747
2.31776	94.5401
2.31673	94.6427
2.31569	94.7008
2.31466	94.6007
2.31362	94.5346
2.31259	94.6233
2.31156	94.5444
2.31053	94.4325
2.3095	94.4809
2.30847	94.5732
2.30745	94.6162
2.30642	94.6583
2.3054	94.7323
2.30437	94.7037
2.30335	94.5406
2.30232	94.5497
2.3013	94.7792
2.30028	94.8241
2.29926	94.768
2.29824	94.6776
2.29722	94.6141
2.29621	94.6471
2.29519	94.7212
2.29417	94.9133
2.29316	94.9252
2.29215	94.8463
2.29113	94.8574
2.29012	94.7424
2.28911	94.7696
2.2881	94.9091
2.28709	94.8793
2.28608	94.7558
2.28507	94.8585
2.28407	94.9244
2.28306	94.8308
2.28206	94.84
2.28105	94.9397
2.28005	94.9895
2.27905	95.0208
2.27805	94.9818
2.27705	94.8398
2.27605	94.8999
2.27505	94.986
2.27405	95.1236
2.27305	95.132
2.27206	95.0121
2.27106	94.8833
2.27007	94.9778
2.26907	95.0784
2.26808	95.0825
2.26709	95.0382
2.2661	94.9398
2.26511	94.9091
2.26412	94.9501
2.26313	94.9896
2.26214	95.0359
2.26116	94.9697
2.26017	95.034
2.25919	95.0697
2.2582	94.9572
2.25722	94.931
2.25624	95.1266
2.25526	95.1224
2.25428	95.0853
2.2533	95.0911
2.25232	95.0322
2.25134	95.0044
2.25036	95.0425
2.24939	95.0453
2.24841	94.9392
2.24744	94.8374
2.24646	94.9258
2.24549	94.9791
2.24452	94.8761
2.24355	94.9428
2.24257	95.0186
2.24161	94.8725
2.24064	94.8313
2.23967	94.7658
2.2387	94.693
2.23774	94.7944
2.23677	94.8842
2.23581	94.9257
2.23484	94.9614
2.23388	94.9463
2.23292	94.9265
2.23196	94.8812
2.231	94.8005
2.23004	94.917
2.22908	95.0244
2.22812	94.9659
2.22716	94.9783
2.22621	95.0182
2.22525	94.9323
2.2243	94.907
2.22334	94.9833
2.22239	94.996
2.22144	95.0378
2.22049	94.9181
2.21953	94.7383
2.21859	94.819
2.21764	94.9555
2.21669	94.9374
2.21574	95
2.21479	95.0813
2.21385	95.1108
2.2129	95.0717
2.21196	95.0328
2.21102	94.9713
2.21007	94.9025
2.20913	94.9591
2.20819	95.0045
2.20725	95.0194
2.20631	95.1159
2.20537	95.1332
2.20444	95.1523
2.2035	95.2077
2.20256	95.1544
2.20163	95.0262
2.20069	95.0327
2.19976	95.0217
2.19883	95.0707
2.19789	95.0592
2.19696	94.9174
2.19603	95.0088
2.1951	95.0771
2.19417	95.0013
2.19325	95.17
2.19232	95.3037
2.19139	95.2116
2.19047	95.0958
2.18954	95.1343
2.18862	95.1776
2.18769	95.1041
2.18677	95.0349
2.18585	95.0046
2.18493	95.1086
2.18401	95.127
2.18309	95.0209
2.18217	95.0852
2.18125	95.1255
2.18033	95.097
2.17942	95.1247
2.1785	95.0299
2.17759	95.0009
2.17667	95.0353
2.17576	94.9886
2.17485	94.9618
2.17393	95.0255
2.17302	95.046
2.17211	94.9326
2.1712	94.9622
2.17029	95.039
2.16939	95.0051
2.16848	94.9904
2.16757	95.0601
2.16667	95.1223
2.16576	95.1671
2.16486	95.1538
2.16395	95.0704
2.16305	95.1003
2.16215	95.1253
2.16125	95.1917
2.16035	95.1914
2.15945	95.0938
2.15855	95.1796
2.15765	95.2737
2.15675	95.0769
2.15586	94.9693
2.15496	95.0361
2.15406	95.1731
2.15317	95.1692
2.15228	95.199
2.15138	95.3705
2.15049	95.4513
2.1496	95.3283
2.14871	95.2295
2.14782	95.1429
2.14693	95.1836
2.14604	95.3328
2.14515	95.2661
2.14427	95.2365
2.14338	95.2058
2.14249	95.1855
2.14161	95.2255
2.14072	95.2633
2.13984	95.2166
2.13896	95.1583
2.13808	95.1826
2.13719	95.3267
2.13631	95.4317
2.13543	95.4275
2.13455	95.2793
2.13368	95.2576
2.1328	95.356
2.13192	95.4203
2.13105	95.4516
2.13017	95.5174
2.1293	95.4333
2.12842	95.1723
2.12755	95.2307
2.12668	95.3639
2.1258	95.3403
2.12493	95.5052
2.12406	95.4872
2.12319	95.3044
2.12232	95.3474
2.12145	95.4071
2.12059	95.3564
2.11972	95.2591
2.11885	95.2245
2.11799	95.4052
2.11712	95.4219
2.11626	95.1902
2.1154	95.2285
2.11453	95.0618
2.11367	95.1417
2.11281	95.316
2.11195	95.1667
2.11109	95.0845
2.11023	95.1973
2.10937	95.2983
2.10851	95.3445
2.10766	95.3166
2.1068	95.3217
2.10594	95.4309
2.10509	95.3582
2.10423	95.2634
2.10338	95.1762
2.10253	95.192
2.10168	95.2887
2.10082	95.208
2.09997	95.0715
2.09912	95.1768
2.09827	95.2566
2.09742	95.2005
2.09658	95.1823
2.09573	95.3229
2.09488	95.4588
2.09404	95.417
2.09319	95.1795
2.09235	95.1342
2.0915	95.3408
2.09066	95.477
2.08982	95.3265
2.08897	95.1293
2.08813	94.9195
2.08729	94.9872
2.08645	95.3201
2.08561	95.3341
2.08477	95.213
2.08394	95.096
2.0831	95.1021
2.08226	95.2
2.08143	95.3606
2.08059	95.2836
2.07976	95.065
2.07892	95.0805
2.07809	94.8531
2.07726	94.8397
2.07643	95.0853
2.07559	95.1098
2.07476	95.2591
2.07393	95.4059
2.0731	95.2523
2.07228	95.2182
2.07145	95.7054
2.07062	95.4463
2.06979	94.86
2.06897	95.0622
2.06814	95.1719
2.06732	95.1265
2.06649	95.2087
2.06567	95.2229
2.06485	95.139
2.06403	95.2939
2.0632	95.2595
2.06238	95.1722
2.06156	95.3065
2.06074	95.3043
2.05993	95.014
2.05911	94.9165
2.05829	95.1397
2.05747	95.2518
2.05666	95.1949
2.05584	95.1412
2.05503	95.129
2.05421	95.1742
2.0534	95.206
2.05259	95.1652
2.05177	95.1551
2.05096	95.2134
2.05015	95.2942
2.04934	95.2944
2.04853	95.2572
2.04772	95.1854
2.04691	95.0909
2.04611	95.1535
2.0453	95.2413
2.04449	95.3173
2.04369	95.2902
2.04288	95.3331
2.04208	95.3398
2.04127	95.1385
2.04047	95.2064
2.03967	95.4302
2.03886	95.3013
2.03806	95.1079
2.03726	95.149
2.03646	95.2044
2.03566	95.1152
2.03486	95.1908
2.03407	95.2587
2.03327	95.093
2.03247	94.9848
2.03167	95.0643
2.03088	95.2138
2.03008	95.2392
2.02929	95.2178
2.0285	95.2576
2.0277	95.2243
2.02691	95.244
2.02612	95.2938
2.02533	95.1473
2.02453	95.0992
2.02374	95.1095
2.02295	95.1017
2.02217	95.1196
2.02138	95.1704
2.02059	95.1398
2.0198	95.1319
2.01902	95.2389
2.01823	95.2109
2.01744	95.1906
2.01666	95.1179
2.01588	94.9381
2.01509	95.0146
2.01431	95.307
2.01353	95.3284
2.01275	95.2156
2.01196	95.2171
2.01118	95.149
2.0104	95.0577
2.00963	95.0008
2.00885	95.1207
2.00807	95.1079
2.00729	95.0971
2.00651	95.11
2.00574	95.1412
2.00496	95.2244
2.00419	95.2612
2.00341	95.0642
2.00264	94.9985
2.00187	95.0701
2.00109	95.1348
2.00032	95.1018
