Name: Quartz SiO_2
Type: Mineral
Class: Silicates
Subclass: Tectosilicates
Particle Size: 45-125um
Sample No.: TS-1C
Owner: JPL
Wavelength range: IR
Origin: USA, South Dakota, Custer County, Custer
Collected by Ward's
Description:  Rose quartz. 





Measurement: Hemispherical reflectance
First Column: X
Second Column: Y
X Units:  Wavelength (micrometers)
Y Units:  Reflectance (percent)
First X Value: 15.3853
Last X Value: 2.00032
Number of X Values: 2256
Additional information: ts01ca.txt
 
15.3853	6.74915
15.3397	6.76579
15.2945	6.61352
15.2495	6.5332
15.2048	6.61131
15.1603	6.67878
15.1161	6.44215
15.0722	6.28045
15.0285	6.21032
14.9851	5.73997
14.9419	5.65985
14.8989	5.75781
14.8563	5.43947
14.8138	5.15977
14.7716	5.15776
14.7296	4.90987
14.6879	4.74153
14.6464	4.81246
14.6052	4.61091
14.5641	4.50105
14.5233	4.49241
14.4828	4.45745
14.4424	4.54705
14.4023	4.33263
14.3624	3.78382
14.3227	3.15858
14.2833	2.78154
14.244	2.79611
14.205	3.22603
14.1662	3.64325
14.1276	3.66154
14.0892	3.81596
14.051	4.1907
14.0131	4.39735
13.9753	4.58663
13.9377	4.48286
13.9004	4.4466
13.8632	4.84329
13.8262	5.07519
13.7895	5.09534
13.7529	5.2532
13.7165	5.41557
13.6803	5.298
13.6443	5.10261
13.6085	5.00077
13.5729	5.23321
13.5374	5.37406
13.5022	5.37195
13.4671	5.44505
13.4322	5.54381
13.3975	5.60425
13.363	5.53493
13.3286	5.5524
13.2944	5.68385
13.2604	5.65024
13.2266	5.76856
13.193	6.02122
13.1595	5.99557
13.1262	5.96482
13.093	6.27422
13.06	6.6927
13.0272	7.0291
12.9946	7.32796
12.9621	7.95132
12.9298	8.79542
12.8976	9.99934
12.8656	11.1475
12.8337	12.0709
12.8021	12.6543
12.7705	12.3813
12.7391	11.316
12.7079	9.87403
12.6769	8.4836
12.6459	7.84316
12.6152	8.00722
12.5845	8.60597
12.5541	9.44925
12.5238	10.4661
12.4936	10.9272
12.4635	10.5596
12.4337	9.24834
12.4039	7.134
12.3743	4.49631
12.3448	2.3056
12.3155	1.16994
12.2863	0.918646
12.2573	1.00571
12.2284	1.14091
12.1996	1.3361
12.171	1.57866
12.1425	1.96054
12.1141	2.18983
12.0859	2.2392
12.0578	2.44031
12.0298	2.71017
12.0019	2.90111
11.9742	3.04519
11.9466	3.26345
11.9192	3.4462
11.8918	3.64841
11.8646	3.7074
11.8375	3.82146
11.8106	4.00386
11.7837	4.31406
11.757	4.41464
11.7304	4.51391
11.7039	4.70205
11.6776	4.72419
11.6513	4.72982
11.6252	4.74606
11.5992	4.8501
11.5733	4.96716
11.5475	5.00796
11.5219	5.06918
11.4963	5.14162
11.4709	5.26724
11.4455	5.34219
11.4203	5.39637
11.3952	5.58203
11.3702	5.70447
11.3454	5.71554
11.3206	5.68819
11.2959	5.7753
11.2714	5.85907
11.2469	5.80292
11.2226	5.90196
11.1983	5.89983
11.1742	5.9131
11.1502	6.02037
11.1263	6.09517
11.1024	6.16584
11.0787	6.30376
11.0551	6.53497
11.0316	6.5024
11.0081	6.38098
10.9848	6.49026
10.9616	6.53776
10.9385	6.5758
10.9154	6.53833
10.8925	6.54772
10.8697	6.71515
10.8469	6.71042
10.8243	6.68684
10.8017	6.62496
10.7793	6.66079
10.7569	6.76598
10.7346	6.72176
10.7125	6.6372
10.6904	6.56779
10.6684	6.55348
10.6465	6.57703
10.6247	6.62156
10.6029	6.73474
10.5813	6.86381
10.5597	6.88261
10.5383	6.85708
10.5169	6.92278
10.4956	6.92675
10.4744	7.00784
10.4533	7.08718
10.4323	7.08402
10.4113	7.06122
10.3904	7.1305
10.3697	7.28407
10.349	7.40536
10.3284	7.44816
10.3078	7.48831
10.2874	7.62646
10.267	7.72313
10.2467	7.7843
10.2265	7.84502
10.2064	7.88134
10.1863	7.98914
10.1663	8.10729
10.1464	8.16669
10.1266	8.18039
10.1069	8.29377
10.0872	8.41765
10.0676	8.42034
10.0481	8.55472
10.0287	8.72941
10.0093	8.9059
9.99005	9.10649
9.97084	9.21932
9.95169	9.33323
9.93263	9.57201
9.91364	9.81467
9.89472	9.97301
9.87587	10.2038
9.8571	10.4042
9.83839	10.6696
9.81976	10.9033
9.80119	11.1081
9.78271	11.3837
9.76428	11.7858
9.74592	12.1687
9.72764	12.3895
9.70943	12.5952
9.69128	12.9708
9.6732	13.4209
9.65518	13.9378
9.63724	14.4381
9.61935	15.0189
9.60155	15.5865
9.5838	16.0124
9.56611	16.4966
9.5485	17.2286
9.53094	18.1085
9.51345	19.068
9.49604	20.3211
9.47867	21.6753
9.46137	23.0262
9.44414	24.7248
9.42697	26.9426
9.40986	29.6766
9.39281	32.83
9.37583	36.1922
9.35891	39.558
9.34204	42.712
9.32524	45.5752
9.3085	47.9172
9.29182	49.4841
9.27519	50.4538
9.25863	51.2026
9.24213	51.7491
9.22568	52.2336
9.2093	52.6937
9.19297	52.9637
9.17669	53.1267
9.16048	53.3588
9.14433	53.5803
9.12823	53.7612
9.11218	53.9514
9.0962	54.0917
9.08027	54.1449
9.06439	54.2692
9.04858	54.3877
9.03281	54.3558
9.0171	54.3347
9.00145	54.2784
8.98585	54.1749
8.9703	54.1363
8.9548	54.1723
8.93937	54.0209
8.92398	53.8148
8.90865	53.5135
8.89337	53.1619
8.87814	52.8872
8.86296	52.5864
8.84784	52.208
8.83277	51.6723
8.81774	50.9673
8.80277	50.3153
8.78786	49.6257
8.77298	48.9364
8.75816	48.2773
8.7434	47.6967
8.72868	47.013
8.714	45.97
8.69938	44.6877
8.68481	42.7855
8.67029	39.7279
8.65581	35.599
8.64139	31.2339
8.62701	29.2597
8.61268	31.2526
8.5984	35.7076
8.58416	40.2375
8.56997	43.3641
8.55583	45.4456
8.54174	46.8527
8.52769	47.6936
8.51368	48.1957
8.49973	48.3907
8.48582	48.4282
8.47195	48.3806
8.45813	48.2022
8.44436	48.0299
8.43062	47.8984
8.41693	47.6939
8.4033	47.4285
8.3897	47.1745
8.37614	46.8575
8.36264	46.4734
8.34917	46.297
8.33574	46.2267
8.32236	45.9907
8.30903	45.7838
8.29573	45.7413
8.28248	45.7005
8.26927	45.6145
8.2561	45.4699
8.24298	45.1681
8.2299	44.7407
8.21685	44.2334
8.20385	43.5695
8.19089	42.6594
8.17797	41.3486
8.16509	39.7827
8.15225	37.7772
8.13946	35.3554
8.1267	32.9125
8.11398	30.5255
8.10131	28.237
8.08867	26.1358
8.07606	24.2929
8.0635	22.4588
8.05099	20.7321
8.0385	19.1513
8.02606	17.6339
8.01366	16.3903
8.00129	15.219
7.98896	14.0157
7.97667	12.805
7.96442	11.7165
7.9522	10.6781
7.94002	9.61847
7.92788	8.62872
7.91578	7.64876
7.90371	6.89323
7.89168	6.277
7.87969	5.74778
7.86773	5.24121
7.85581	4.73478
7.84392	4.23155
7.83207	3.87481
7.82026	3.55557
7.80849	3.21812
7.79674	2.89882
7.78503	2.62078
7.77337	2.44769
7.76173	2.38737
7.75012	2.24393
7.73856	1.99222
7.72703	1.78461
7.71553	1.6172
7.70406	1.41779
7.69263	1.22411
7.68123	1.01916
7.66987	0.964602
7.65855	0.912203
7.64725	0.77621
7.63598	0.66841
7.62475	0.587198
7.61356	0.550596
7.60239	0.506454
7.59126	0.426545
7.58017	0.316382
7.5691	0.267017
7.55806	0.288589
7.54707	0.28305
7.5361	0.212771
7.52516	0.264169
7.51425	0.261588
7.50338	0.114735
7.49253	0.109125
7.48172	0.127674
7.47094	0.0538401
7.46019	-0.0190127
7.44947	0.0207322
7.43879	0.144608
7.42813	0.188866
7.4175	0.183087
7.4069	0.0620003
7.39634	-0.0295706
7.3858	0.0378131
7.37529	0.0504803
7.36482	0.0606904
7.35437	0.099956
7.34396	0.064672
7.33357	0.011991
7.32321	0.115724
7.31288	0.10263
7.30258	0.109548
7.29231	0.0688383
7.28207	0.067475
7.27185	0.118417
7.26167	0.0771356
7.25152	0.123354
7.24139	0.184525
7.23129	0.200578
7.22122	0.23233
7.21117	0.235788
7.20116	0.251482
7.19117	0.281202
7.18121	0.307926
7.17128	0.317706
7.16137	0.2393
7.1515	0.187114
7.14164	0.248163
7.13182	0.256695
7.12203	0.301506
7.11225	0.383734
7.10251	0.456639
7.0928	0.515943
7.08311	0.544727
7.07344	0.466336
7.06381	0.531921
7.0542	0.583506
7.04461	0.628098
7.03506	0.634916
7.02552	0.669823
7.01601	0.685498
7.00653	0.666372
6.99708	0.706904
6.98765	0.814685
6.97824	0.901403
6.96886	0.914792
6.95951	0.914775
6.95018	0.959795
6.94087	1.02414
6.9316	1.07193
6.92234	1.07072
6.91311	1.1636
6.90391	1.20466
6.89473	1.20737
6.88557	1.24779
6.87644	1.24657
6.86733	1.25782
6.85824	1.3081
6.84918	1.30439
6.84015	1.23219
6.83114	1.22445
6.82215	1.26996
6.81319	1.26681
6.80424	1.26809
6.79532	1.22696
6.78643	1.20085
6.77756	1.15289
6.76871	1.06432
6.75989	1.01142
6.75109	1.01978
6.74231	1.01116
6.73355	0.967785
6.72482	0.978683
6.71611	1.03444
6.70742	1.04758
6.69875	1.01069
6.69011	1.04451
6.68149	1.12503
6.67289	1.21056
6.66431	1.25662
6.65576	1.23899
6.64722	1.26266
6.63871	1.28533
6.63022	1.28389
6.62175	1.32627
6.61331	1.29899
6.60488	1.24091
6.59648	1.22109
6.5881	1.23786
6.57974	1.27588
6.5714	1.31946
6.56308	1.29798
6.55478	1.18672
6.54651	1.17298
6.53825	1.21748
6.53001	1.28278
6.5218	1.4795
6.51361	1.73487
6.50544	1.93051
6.49729	2.11089
6.48915	2.29949
6.48104	2.5835
6.47295	2.83704
6.46488	2.9981
6.45683	3.25709
6.4488	3.39496
6.44079	3.42886
6.4328	3.54495
6.42482	3.65283
6.41687	3.66907
6.40894	3.53798
6.40103	3.31537
6.39314	3.14195
6.38526	3.00886
6.37741	2.90369
6.36957	2.74609
6.36176	2.61931
6.35396	2.53555
6.34618	2.35798
6.33843	2.13541
6.33069	1.98786
6.32297	1.84578
6.31527	1.68452
6.30758	1.70003
6.29992	1.63926
6.29227	1.55968
6.28465	1.47767
6.27704	1.34502
6.26945	1.29289
6.26188	1.28843
6.25432	1.24026
6.24679	1.10604
6.23927	1.07425
6.23177	1.1491
6.22429	1.11361
6.21683	1.09187
6.20938	1.09327
6.20195	1.05724
6.19454	1.04223
6.18715	1.10805
6.17978	1.24006
6.17242	1.34164
6.16508	1.37548
6.15776	1.44258
6.15045	1.59427
6.14317	1.7039
6.1359	1.80957
6.12864	1.97597
6.12141	2.28278
6.11419	2.49489
6.10699	2.55045
6.0998	2.60698
6.09263	2.83878
6.08549	3.1021
6.07835	3.22883
6.07123	3.30484
6.06413	3.35642
6.05705	3.44617
6.04998	3.51929
6.04293	3.39125
6.0359	3.27824
6.02888	3.22229
6.02187	3.19506
6.01489	3.11611
6.00792	3.00494
6.00096	2.86189
5.99403	2.81328
5.98711	2.73331
5.9802	2.50603
5.97331	2.41997
5.96644	2.37619
5.95958	2.24035
5.95274	2.25163
5.94591	2.23093
5.9391	2.11825
5.9323	2.08651
5.92552	2.11743
5.91876	2.21077
5.91201	2.37015
5.90528	2.47883
5.89856	2.65771
5.89186	2.87655
5.88517	3.08649
5.8785	3.265
5.87184	3.42063
5.8652	3.67538
5.85857	3.8925
5.85196	4.11311
5.84536	4.36386
5.83878	4.60385
5.83221	4.8396
5.82566	5.10982
5.81912	5.36256
5.81259	5.55192
5.80608	5.76566
5.79959	5.99453
5.79311	6.22951
5.78665	6.43995
5.78019	6.73088
5.77376	7.11019
5.76734	7.43143
5.76093	7.57561
5.75453	7.64788
5.74815	7.84264
5.74179	8.00312
5.73543	8.13969
5.7291	8.33829
5.72277	8.47844
5.71646	8.51853
5.71017	8.52296
5.70389	8.39268
5.69762	8.20642
5.69136	8.02199
5.68513	7.73462
5.6789	7.31653
5.67268	6.80354
5.66648	6.19913
5.6603	5.52442
5.65413	4.90861
5.64797	4.43945
5.64182	4.02245
5.63569	3.63183
5.62957	3.35062
5.62347	3.18133
5.61737	3.04195
5.61129	2.87244
5.60522	2.71024
5.59917	2.7021
5.59313	2.72612
5.5871	2.64492
5.58109	2.61705
5.57509	2.57936
5.5691	2.57732
5.56312	2.63804
5.55716	2.71299
5.55121	2.77689
5.54528	2.83964
5.53935	2.93948
5.53344	3.01348
5.52754	3.17365
5.52166	3.40709
5.51578	3.62753
5.50992	3.75941
5.50407	3.89863
5.49823	4.0628
5.49241	4.2811
5.4866	4.60338
5.4808	4.82805
5.47501	4.94588
5.46923	5.16717
5.46347	5.35256
5.45772	5.35138
5.45198	5.25741
5.44625	5.25335
5.44054	5.13076
5.43484	4.8418
5.42914	4.56445
5.42347	4.27572
5.4178	3.85402
5.41214	3.42156
5.4065	3.02279
5.40087	2.60006
5.39525	2.35722
5.38964	2.21686
5.38404	1.99241
5.37846	1.77416
5.37288	1.7031
5.36732	1.63387
5.36177	1.58814
5.35623	1.62109
5.35071	1.59904
5.34519	1.58633
5.33968	1.59316
5.33419	1.61204
5.32871	1.61676
5.32324	1.64426
5.31778	1.62342
5.31233	1.52562
5.30689	1.58284
5.30147	1.6993
5.29605	1.71228
5.29065	1.6904
5.28525	1.74151
5.27987	1.8174
5.2745	1.84229
5.26914	1.93877
5.26379	2.16734
5.25845	2.37079
5.25312	2.44707
5.24781	2.56987
5.2425	2.76651
5.23721	3.06234
5.23192	3.40656
5.22665	3.78814
5.22138	4.17363
5.21613	4.50623
5.21089	4.79232
5.20566	5.1079
5.20044	5.26391
5.19522	5.22737
5.19002	5.1981
5.18483	5.19761
5.17965	5.16399
5.17448	5.07922
5.16933	5.06291
5.16418	5.06395
5.15904	4.99007
5.15391	4.86737
5.14879	4.80177
5.14368	4.74206
5.13859	4.68235
5.1335	4.63186
5.12842	4.56744
5.12335	4.62932
5.1183	4.66233
5.11325	4.59583
5.10821	4.5522
5.10318	4.48832
5.09817	4.40573
5.09316	4.23889
5.08816	4.0469
5.08317	3.92725
5.07819	3.84372
5.07322	3.72983
5.06826	3.61196
5.06331	3.55933
5.05837	3.52819
5.05344	3.53319
5.04852	3.52701
5.04361	3.52567
5.03871	3.52264
5.03382	3.53161
5.02894	3.54981
5.02406	3.48768
5.0192	3.41013
5.01435	3.44703
5.0095	3.48349
5.00467	3.48127
4.99984	3.5311
4.99502	3.54238
4.99021	3.65121
4.98542	3.84777
4.98063	3.99397
4.97585	4.21094
4.97108	4.54828
4.96632	4.93437
4.96156	5.36857
4.95682	5.74472
4.95209	6.0446
4.94736	6.46226
4.94264	6.80043
4.93794	6.93283
4.93324	7.15564
4.92855	7.51576
4.92387	7.84581
4.9192	8.37915
4.91453	9.18354
4.90988	10.0987
4.90524	11.2505
4.9006	12.6278
4.89597	14.1335
4.89135	15.7098
4.88674	17.344
4.88214	18.9599
4.87755	20.4942
4.87296	21.8863
4.86839	23.1639
4.86382	24.4309
4.85926	25.5914
4.85471	26.6478
4.85017	27.5955
4.84564	28.5058
4.84111	29.3792
4.8366	30.1596
4.83209	30.9157
4.82759	31.6557
4.8231	32.3604
4.81862	33.0723
4.81415	33.7519
4.80968	34.4368
4.80522	35.0575
4.80077	35.6377
4.79633	36.2813
4.7919	36.8847
4.78747	37.4339
4.78306	37.9673
4.77865	38.4088
4.77425	38.9256
4.76986	39.3916
4.76547	39.8507
4.7611	40.2542
4.75673	40.6634
4.75237	41.0465
4.74802	41.3649
4.74367	41.6451
4.73934	41.8806
4.73501	42.131
4.73069	42.3014
4.72638	42.2893
4.72207	42.1797
4.71777	42.0233
4.71348	41.7029
4.7092	41.1963
4.70493	40.4198
4.70066	39.4164
4.69641	38.2159
4.69216	37.0561
4.68791	36.197
4.68368	35.7023
4.67945	35.7347
4.67523	36.2948
4.67102	37.2092
4.66682	38.2926
4.66262	39.4176
4.65843	40.5224
4.65425	41.5472
4.65007	42.5425
4.64591	43.5572
4.64175	44.6352
4.6376	45.7372
4.63345	46.7514
4.62932	47.5996
4.62519	48.3731
4.62106	49.0816
4.61695	49.6631
4.61284	50.12
4.60874	50.5076
4.60465	50.8433
4.60056	51.1451
4.59648	51.42
4.59241	51.6068
4.58835	51.7138
4.58429	51.8217
4.58024	51.8927
4.5762	51.8125
4.57216	51.6661
4.56814	51.4448
4.56411	51.1597
4.5601	50.7823
4.55609	50.253
4.55209	49.5062
4.5481	48.6543
4.54411	47.6765
4.54013	46.6251
4.53616	45.4429
4.5322	44.1835
4.52824	42.9879
4.52429	41.7322
4.52034	40.3662
4.51641	38.9829
4.51247	37.5192
4.50855	36.0784
4.50463	34.797
4.50072	33.799
4.49682	32.9359
4.49292	32.2349
4.48903	31.737
4.48515	31.3379
4.48127	31.0038
4.4774	30.6152
4.47354	30.3635
4.46968	30.318
4.46584	30.3459
4.46199	30.4617
4.45815	30.869
4.45432	31.4549
4.4505	32.0561
4.44668	32.5836
4.44287	33.0357
4.43907	33.3911
4.43527	33.6516
4.43148	33.9985
4.4277	34.3962
4.42392	34.9422
4.42015	35.4474
4.41638	35.9282
4.41262	36.4878
4.40887	37.0837
4.40513	37.713
4.40139	38.3364
4.39765	39.0019
4.39393	39.7736
4.39021	40.5407
4.38649	41.3281
4.38278	42.1937
4.37908	43.0658
4.37539	43.8791
4.3717	44.7535
4.36801	45.6262
4.36434	46.4309
4.36067	47.1793
4.357	47.8851
4.35335	48.5733
4.34969	49.1321
4.34605	49.6046
4.34241	50.0055
4.33877	50.3479
4.33514	50.6118
4.33152	50.8218
4.32791	50.9292
4.3243	50.9333
4.32069	50.8347
4.3171	50.6559
4.31351	50.3986
4.30992	50.1743
4.30634	49.9668
4.30277	49.6745
4.2992	49.4298
4.29564	49.2618
4.29208	49.1892
4.28853	49.1017
4.28499	49.1414
4.28145	49.4014
4.27792	49.6892
4.27439	49.9667
4.27087	50.2734
4.26735	50.715
4.26384	51.2073
4.26034	51.616
4.25684	51.9754
4.25335	52.1774
4.24986	52.0964
4.24638	51.8737
4.24291	51.7248
4.23944	51.6354
4.23598	51.5455
4.23252	51.5133
4.22906	51.6666
4.22562	51.8629
4.22218	52.1427
4.21874	52.4014
4.21531	52.5625
4.21189	52.7001
4.20847	52.8324
4.20506	52.8664
4.20165	52.9049
4.19825	53.0114
4.19485	53.1159
4.19146	53.2655
4.18807	53.584
4.18469	53.8908
4.18132	54.2002
4.17795	54.543
4.17458	54.933
4.17123	55.2924
4.16787	55.4899
4.16453	55.6543
4.16118	55.9148
4.15785	56.1943
4.15451	56.4824
4.15119	56.7336
4.14787	56.9066
4.14455	57.1012
4.14124	57.3735
4.13794	57.6543
4.13464	57.9204
4.13134	58.252
4.12805	58.6491
4.12477	58.9591
4.12149	59.3247
4.11822	59.6828
4.11495	59.9905
4.11168	60.3839
4.10843	60.7562
4.10517	61.0337
4.10192	61.379
4.09868	61.7473
4.09545	62.1586
4.09221	62.5176
4.08899	62.8464
4.08576	63.1554
4.08255	63.4689
4.07933	63.7401
4.07613	63.9528
4.07292	64.1351
4.06973	64.2868
4.06654	64.4306
4.06335	64.5299
4.06017	64.594
4.05699	64.6513
4.05382	64.6182
4.05065	64.5688
4.04749	64.5154
4.04433	64.4836
4.04118	64.4329
4.03803	64.297
4.03489	64.1876
4.03175	64.1881
4.02862	64.129
4.02549	64.0031
4.02237	63.9914
4.01925	63.9872
4.01614	63.9616
4.01303	63.9468
4.00993	63.918
4.00683	63.9239
4.00373	64.0409
4.00064	64.1147
3.99756	64.1405
3.99448	64.2408
3.9914	64.3669
3.98833	64.4905
3.98527	64.6536
3.98221	64.8476
3.97915	65.0992
3.9761	65.3166
3.97305	65.4969
3.97001	65.7548
3.96697	66.0404
3.96394	66.3305
3.96091	66.5774
3.95789	66.8014
3.95487	67.0175
3.95186	67.2458
3.94885	67.5071
3.94584	67.7946
3.94284	67.9975
3.93984	68.1889
3.93685	68.3664
3.93386	68.4894
3.93088	68.6685
3.9279	68.8358
3.92493	68.905
3.92196	69.0277
3.919	69.0733
3.91604	69.0138
3.91308	68.9738
3.91013	68.8966
3.90718	68.8029
3.90424	68.7073
3.9013	68.5893
3.89837	68.4486
3.89544	68.2613
3.89252	68.0651
3.8896	67.8563
3.88668	67.6475
3.88377	67.5447
3.88086	67.3846
3.87796	67.1779
3.87506	67.0395
3.87217	66.894
3.86928	66.7365
3.86639	66.5701
3.86351	66.394
3.86064	66.2955
3.85776	66.341
3.8549	66.3432
3.85203	66.2652
3.84917	66.2377
3.84631	66.2924
3.84346	66.2767
3.84062	66.362
3.83777	66.5376
3.83494	66.6935
3.8321	66.8327
3.82927	66.9529
3.82644	67.1182
3.82362	67.2408
3.82081	67.3296
3.81799	67.4361
3.81518	67.508
3.81238	67.6226
3.80958	67.7259
3.80678	67.8141
3.80399	67.839
3.8012	67.8503
3.79841	67.8293
3.79563	67.8277
3.79286	67.7953
3.79008	67.7061
3.78731	67.5753
3.78455	67.4244
3.78179	67.2792
3.77903	67.1817
3.77628	67.0288
3.77353	66.8825
3.77079	66.6803
3.76805	66.4936
3.76531	66.3385
3.76258	66.2059
3.75985	66.027
3.75713	65.8042
3.7544	65.7064
3.75169	65.7325
3.74898	65.696
3.74627	65.5912
3.74356	65.5335
3.74086	65.5378
3.73816	65.5215
3.73547	65.5568
3.73278	65.6261
3.7301	65.7442
3.72741	65.8808
3.72474	66.1455
3.72206	66.4443
3.71939	66.666
3.71673	66.8971
3.71406	67.091
3.71141	67.314
3.70875	67.6329
3.7061	68.0291
3.70345	68.3729
3.70081	68.7384
3.69817	69.088
3.69553	69.4173
3.6929	69.7902
3.69027	70.0783
3.68765	70.3972
3.68503	70.7208
3.68241	71.0536
3.6798	71.4137
3.67719	71.7484
3.67458	72.0443
3.67198	72.3499
3.66938	72.5744
3.66678	72.8229
3.66419	73.0963
3.66161	73.3355
3.65902	73.5327
3.65644	73.6839
3.65387	73.7301
3.65129	73.8487
3.64872	74.0068
3.64616	74.1235
3.64359	74.2116
3.64103	74.2608
3.63848	74.2626
3.63593	74.322
3.63338	74.4098
3.63084	74.4708
3.6283	74.4413
3.62576	74.3838
3.62322	74.4205
3.62069	74.4782
3.61817	74.5398
3.61564	74.5757
3.61312	74.5776
3.61061	74.5693
3.6081	74.6251
3.60559	74.6545
3.60308	74.6663
3.60058	74.7876
3.59808	74.8444
3.59558	74.8902
3.59309	75.0429
3.59061	75.1493
3.58812	75.2174
3.58564	75.2901
3.58316	75.3335
3.58069	75.4295
3.57822	75.5964
3.57575	75.6988
3.57328	75.771
3.57082	75.8222
3.56836	75.9306
3.56591	76.0946
3.56346	76.2028
3.56101	76.3488
3.55857	76.4871
3.55613	76.5801
3.55369	76.6902
3.55126	76.8506
3.54883	76.9279
3.5464	77.0279
3.54397	77.1987
3.54155	77.3028
3.53914	77.3602
3.53672	77.5099
3.53431	77.6704
3.5319	77.7253
3.5295	77.8312
3.5271	77.9963
3.5247	78.0814
3.52231	78.1259
3.51991	78.2057
3.51753	78.267
3.51514	78.2572
3.51276	78.2616
3.51038	78.227
3.50801	78.1518
3.50563	78.1107
3.50327	78.1786
3.5009	78.1724
3.49854	78.1957
3.49618	78.3479
3.49382	78.5336
3.49147	78.6235
3.48912	78.7307
3.48677	78.8716
3.48443	78.9929
3.48209	79.0451
3.47975	79.0692
3.47742	79.1521
3.47509	79.2135
3.47276	79.2733
3.47044	79.3227
3.46812	79.3233
3.4658	79.3968
3.46348	79.4716
3.46117	79.5511
3.45886	79.5688
3.45656	79.4765
3.45425	79.4451
3.45195	79.4769
3.44966	79.44
3.44736	79.374
3.44507	79.3378
3.44279	79.3372
3.4405	79.2257
3.43822	79.1578
3.43594	79.1103
3.43367	78.997
3.43139	78.8766
3.42912	78.6687
3.42686	78.4716
3.42459	78.287
3.42233	78.1825
3.42007	78.0665
3.41782	77.9267
3.41557	77.8548
3.41332	77.8202
3.41108	77.8605
3.40883	77.9893
3.40659	78.0712
3.40435	78.1468
3.40212	78.2027
3.39989	78.2605
3.39766	78.2865
3.39544	78.3163
3.39322	78.4692
3.391	78.511
3.38878	78.4762
3.38657	78.4548
3.38436	78.4332
3.38215	78.4172
3.37994	78.2956
3.37774	78.1881
3.37554	78.1947
3.37335	78.2001
3.37115	78.2057
3.36896	78.346
3.36678	78.4686
3.36459	78.589
3.36241	78.7129
3.36023	78.7467
3.35805	78.8322
3.35588	78.8743
3.35371	78.8531
3.35154	78.928
3.34938	78.9953
3.34721	79.0181
3.34505	79.0281
3.3429	78.9723
3.34074	79.0492
3.33859	79.0676
3.33644	78.9563
3.3343	78.8621
3.33215	78.8776
3.33001	78.907
3.32788	78.8788
3.32574	78.8463
3.32361	78.8365
3.32148	78.7812
3.31936	78.7262
3.31723	78.7079
3.31511	78.6975
3.31299	78.5917
3.31088	78.4731
3.30876	78.3225
3.30665	78.2861
3.30455	78.2525
3.30244	78.2182
3.30034	78.136
3.29824	78.135
3.29614	78.1754
3.29405	78.0716
3.29196	77.8767
3.28987	77.6807
3.28778	77.6469
3.2857	77.666
3.28362	77.5977
3.28154	77.5253
3.27946	77.4499
3.27739	77.3819
3.27532	77.3998
3.27325	77.3114
3.27119	77.2228
3.26913	77.1847
3.26707	77.0673
3.26501	76.961
3.26295	76.9485
3.2609	76.9532
3.25885	76.8244
3.2568	76.7209
3.25476	76.6749
3.25272	76.5988
3.25068	76.5512
3.24864	76.5006
3.24661	76.4727
3.24458	76.4432
3.24255	76.3288
3.24052	76.2039
3.2385	76.1539
3.23648	76.1817
3.23446	76.0635
3.23244	75.9559
3.23043	75.8858
3.22841	75.8153
3.2264	75.7819
3.2244	75.6887
3.22239	75.5038
3.22039	75.37
3.21839	75.3489
3.2164	75.3165
3.2144	75.2464
3.21241	75.1674
3.21042	75.0433
3.20844	74.9637
3.20645	74.9039
3.20447	74.866
3.20249	74.7381
3.20051	74.6101
3.19854	74.5309
3.19657	74.4105
3.1946	74.3068
3.19263	74.1604
3.19067	74.0396
3.1887	73.9552
3.18674	73.8791
3.18479	73.7877
3.18283	73.6586
3.18088	73.5717
3.17893	73.5371
3.17698	73.4858
3.17504	73.3273
3.17309	73.1464
3.17115	73.0689
3.16921	73.0401
3.16728	72.9498
3.16534	72.7893
3.16341	72.6311
3.16148	72.5111
3.15956	72.4141
3.15763	72.2866
3.15571	72.0963
3.15379	71.922
3.15187	71.7564
3.14996	71.623
3.14805	71.49
3.14614	71.2563
3.14423	70.9401
3.14232	70.7018
3.14042	70.5622
3.13852	70.3843
3.13662	70.192
3.13472	70.0402
3.13283	69.9094
3.13094	69.7479
3.12905	69.7047
3.12716	69.6653
3.12528	69.4813
3.12339	69.2664
3.12151	69.3142
3.11964	69.4252
3.11776	69.3472
3.11589	69.3032
3.11401	69.3226
3.11214	69.3247
3.11028	69.2538
3.10841	69.2324
3.10655	69.2414
3.10469	69.212
3.10283	69.1878
3.10098	69.2103
3.09912	69.203
3.09727	69.1168
3.09542	69.0502
3.09358	69.0742
3.09173	69.0156
3.08989	68.9599
3.08805	68.8596
3.08621	68.7246
3.08437	68.6371
3.08254	68.5786
3.08071	68.5453
3.07888	68.4202
3.07705	68.2442
3.07523	68.2372
3.0734	68.1813
3.07158	67.9787
3.06977	67.8324
3.06795	67.8105
3.06613	67.654
3.06432	67.5102
3.06251	67.4521
3.0607	67.2816
3.0589	67.114
3.0571	66.9737
3.05529	66.7973
3.05349	66.5991
3.0517	66.429
3.0499	66.3167
3.04811	66.1689
3.04632	65.8476
3.04453	65.5627
3.04274	65.4548
3.04096	65.3221
3.03918	65.1753
3.0374	65.1048
3.03562	65.0463
3.03384	64.9363
3.03207	64.7507
3.03029	64.648
3.02852	64.5146
3.02676	64.3142
3.02499	64.2125
3.02323	64.1679
3.02146	64.1045
3.0197	64.0125
3.01795	63.9857
3.01619	64.0258
3.01444	64.1251
3.01269	64.1453
3.01094	64.1402
3.00919	64.1989
3.00744	64.3522
3.0057	64.4398
3.00396	64.4315
3.00222	64.4975
3.00048	64.607
2.99875	64.6607
2.99701	64.7508
2.99528	64.7839
2.99355	64.6751
2.99183	64.5609
2.9901	64.5904
2.98838	64.69
2.98666	64.7295
2.98494	64.5396
2.98322	64.3537
2.9815	64.2267
2.97979	63.9717
2.97808	63.6729
2.97637	63.2873
2.97466	62.9026
2.97295	62.4646
2.97125	61.9137
2.96955	61.2655
2.96785	60.5471
2.96615	59.8303
2.96446	59.1849
2.96276	58.7198
2.96107	58.4164
2.95938	58.4605
2.95769	58.7344
2.95601	59.0231
2.95432	59.5181
2.95264	60.0489
2.95096	60.5745
2.94928	61.1677
2.9476	61.6557
2.94593	61.9311
2.94425	62.1862
2.94258	62.4324
2.94092	62.6623
2.93925	63.0076
2.93758	63.1508
2.93592	63.0931
2.93426	63.1926
2.9326	63.364
2.93094	63.382
2.92928	63.3136
2.92763	63.3108
2.92598	63.385
2.92433	63.3021
2.92268	63.2601
2.92103	63.257
2.91939	63.2522
2.91775	63.2823
2.9161	63.2815
2.91447	63.3511
2.91283	63.3843
2.91119	63.4166
2.90956	63.6361
2.90793	63.9322
2.9063	64.133
2.90467	64.2797
2.90304	64.5454
2.90142	64.791
2.89979	65.0057
2.89817	65.1775
2.89656	65.2345
2.89494	65.3489
2.89332	65.5796
2.89171	65.8552
2.8901	65.9986
2.88849	66.0212
2.88688	66.0797
2.88527	66.2051
2.88367	66.2344
2.88206	66.1898
2.88046	66.1832
2.87886	66.1004
2.87727	65.9418
2.87567	65.5414
2.87408	64.9137
2.87248	64.4306
2.87089	64.3912
2.8693	64.9535
2.86772	65.7081
2.86613	66.3557
2.86455	66.8677
2.86297	67.1882
2.86139	67.4563
2.85981	67.6933
2.85823	67.8553
2.85666	67.9619
2.85508	68.1269
2.85351	68.1829
2.85194	68.282
2.85038	68.4745
2.84881	68.624
2.84724	68.8656
2.84568	69.0048
2.84412	69.0135
2.84256	69.0161
2.841	69.0854
2.83945	69.2731
2.83789	69.3212
2.83634	69.3699
2.83479	69.5051
2.83324	69.5442
2.83169	69.6156
2.83015	69.6179
2.82861	69.7474
2.82706	69.959
2.82552	69.9937
2.82398	70.0098
2.82245	70.1911
2.82091	70.4251
2.81938	70.6093
2.81784	70.7284
2.81631	70.7213
2.81479	70.7985
2.81326	70.9543
2.81173	71.067
2.81021	71.1971
2.80869	71.3589
2.80716	71.487
2.80565	71.6285
2.80413	71.8999
2.80261	72.031
2.8011	71.9345
2.79959	71.9409
2.79808	72.0615
2.79657	72.2024
2.79506	72.2976
2.79355	72.4779
2.79205	72.6138
2.79055	72.6162
2.78904	72.7672
2.78754	73.0336
2.78605	73.0228
2.78455	73.0133
2.78306	73.2478
2.78156	73.2545
2.78007	72.9865
2.77858	73.0696
2.77709	73.2539
2.77561	73.2682
2.77412	73.2149
2.77264	73.2858
2.77116	73.5815
2.76968	73.7085
2.7682	73.7246
2.76672	73.5462
2.76524	73.406
2.76377	73.3827
2.7623	73.3906
2.76083	73.3946
2.75936	73.2527
2.75789	73.2734
2.75642	73.8375
2.75496	73.9911
2.7535	73.5614
2.75203	73.7184
2.75057	73.9341
2.74912	74.102
2.74766	74.2711
2.7462	74.4873
2.74475	74.7308
2.7433	75.0087
2.74185	75.5187
2.7404	76.0243
2.73895	76.1212
2.7375	75.9439
2.73606	76.1415
2.73462	76.4977
2.73318	76.6777
2.73174	76.8263
2.7303	77.0047
2.72886	77.2191
2.72742	77.5506
2.72599	78.1298
2.72456	78.828
2.72313	78.9955
2.7217	79.3757
2.72027	79.926
2.71884	79.8952
2.71742	80.0476
2.71599	80.2915
2.71457	80.5344
2.71315	80.7789
2.71173	81.3884
2.71032	81.7539
2.7089	81.6432
2.70748	81.5852
2.70607	81.7174
2.70466	81.9378
2.70325	82.1991
2.70184	82.4668
2.70043	82.6513
2.69903	82.7068
2.69762	82.8587
2.69622	83.2349
2.69482	83.5994
2.69342	83.8086
2.69202	83.854
2.69062	83.8472
2.68923	83.9041
2.68783	84.0975
2.68644	84.2524
2.68505	84.3661
2.68366	84.5245
2.68227	84.5596
2.68089	84.7158
2.6795	85.0585
2.67812	85.2096
2.67673	85.3456
2.67535	85.1354
2.67397	85.0036
2.6726	85.2261
2.67122	85.9793
2.66984	86.0747
2.66847	85.5522
2.6671	85.9517
2.66572	86.1731
2.66435	85.8279
2.66299	85.3303
2.66162	85.4068
2.66025	85.5258
2.65889	85.439
2.65753	85.3026
2.65616	85.4098
2.65481	85.4462
2.65345	85.6243
2.65209	85.6619
2.65073	85.4165
2.64938	85.3273
2.64803	85.352
2.64667	85.495
2.64532	85.576
2.64397	85.4377
2.64263	85.4994
2.64128	85.5016
2.63994	85.4155
2.63859	85.4104
2.63725	85.4362
2.63591	85.4691
2.63457	85.7063
2.63323	85.733
2.6319	85.8166
2.63056	85.9729
2.62923	85.6434
2.62789	85.6875
2.62656	85.9547
2.62523	85.5936
2.6239	85.4115
2.62258	85.5081
2.62125	85.8632
2.61993	85.9031
2.6186	85.776
2.61728	86.1901
2.61596	86.0512
2.61464	85.6551
2.61332	85.6286
2.61201	85.492
2.61069	85.5175
2.60938	85.6758
2.60807	85.8039
2.60675	86.1579
2.60544	86.3463
2.60414	86.0175
2.60283	85.8031
2.60152	85.8088
2.60022	85.7134
2.59891	85.6881
2.59761	85.7606
2.59631	86.2779
2.59501	86.989
2.59371	86.4572
2.59242	85.7042
2.59112	85.5626
2.58983	85.7023
2.58853	85.7938
2.58724	85.887
2.58595	85.8474
2.58466	86.0766
2.58338	86.0756
2.58209	85.8047
2.5808	85.7067
2.57952	85.5614
2.57824	85.6465
2.57695	85.8067
2.57567	85.7505
2.5744	85.7964
2.57312	85.9054
2.57184	85.7254
2.57057	85.8849
2.56929	85.8671
2.56802	85.5974
2.56675	85.5715
2.56548	85.7566
2.56421	86.0056
2.56294	86.0573
2.56168	86.0788
2.56041	85.8717
2.55915	85.6545
2.55789	85.6425
2.55662	85.6564
2.55536	85.5868
2.5541	85.5736
2.55285	85.6626
2.55159	85.7225
2.55034	85.7188
2.54908	85.6552
2.54783	85.6044
2.54658	85.5749
2.54533	85.6088
2.54408	85.7196
2.54283	85.8164
2.54159	85.7228
2.54034	85.557
2.5391	85.5873
2.53785	85.7307
2.53661	85.7408
2.53537	85.7066
2.53413	85.6709
2.53289	85.67
2.53166	85.6812
2.53042	85.7698
2.52919	85.7443
2.52795	85.6962
2.52672	85.7578
2.52549	85.8157
2.52426	85.7789
2.52303	85.7452
2.52181	85.7115
2.52058	85.6763
2.51936	85.7709
2.51813	85.7883
2.51691	85.7242
2.51569	85.7297
2.51447	85.7209
2.51325	85.7283
2.51203	85.6658
2.51082	85.6621
2.5096	85.6922
2.50839	85.664
2.50717	85.6395
2.50596	85.689
2.50475	85.7224
2.50354	85.6813
2.50233	85.679
2.50113	85.7144
2.49992	85.6665
2.49872	85.6211
2.49751	85.6356
2.49631	85.7394
2.49511	85.7309
2.49391	85.7145
2.49271	85.7324
2.49151	85.6714
2.49031	85.6266
2.48912	85.6598
2.48792	85.7336
2.48673	85.8079
2.48554	85.8204
2.48435	85.7704
2.48316	85.6672
2.48197	85.6393
2.48078	85.6643
2.4796	85.6777
2.47841	85.7142
2.47723	85.6455
2.47604	85.6224
2.47486	85.6397
2.47368	85.7094
2.4725	85.7073
2.47132	85.6608
2.47014	85.7002
2.46897	85.7493
2.46779	85.7601
2.46662	85.7548
2.46545	85.7648
2.46427	85.7819
2.4631	85.7717
2.46193	85.7305
2.46077	85.8195
2.4596	85.8871
2.45843	85.7572
2.45727	85.7515
2.4561	85.8803
2.45494	85.8748
2.45378	85.7033
2.45262	85.7179
2.45146	85.7583
2.4503	85.7528
2.44914	85.7633
2.44799	85.8291
2.44683	85.9264
2.44568	85.8787
2.44452	85.8169
2.44337	85.901
2.44222	85.8566
2.44107	85.7293
2.43992	85.7639
2.43877	85.7956
2.43763	85.8976
2.43648	85.8366
2.43534	85.8393
2.43419	85.9091
2.43305	85.9096
2.43191	85.8755
2.43077	85.8152
2.42963	85.7571
2.42849	85.7474
2.42736	85.8543
2.42622	85.8897
2.42509	85.9335
2.42395	85.8871
2.42282	85.8204
2.42169	85.813
2.42056	85.923
2.41943	85.9974
2.4183	85.9755
2.41717	85.8834
2.41605	85.9743
2.41492	86.0271
2.4138	85.9533
2.41267	85.9247
2.41155	85.9471
2.41043	85.9979
2.40931	86.0075
2.40819	85.9932
2.40707	85.8223
2.40595	85.7421
2.40484	85.8703
2.40372	85.954
2.40261	85.9772
2.4015	85.9154
2.40039	85.851
2.39928	85.7836
2.39817	85.728
2.39706	85.778
2.39595	85.9571
2.39484	85.9647
2.39374	85.875
2.39263	85.9663
2.39153	86.0092
2.39043	85.9561
2.38932	85.9044
2.38822	85.833
2.38712	85.7979
2.38603	85.8534
2.38493	85.9134
2.38383	85.8642
2.38274	85.9326
2.38164	85.959
2.38055	85.8827
2.37946	85.8945
2.37836	86.004
2.37727	85.975
2.37618	85.9351
2.3751	85.8245
2.37401	85.733
2.37292	85.753
2.37184	85.8333
2.37075	85.8679
2.36967	85.8143
2.36859	85.8331
2.3675	85.9594
2.36642	85.9799
2.36534	85.958
2.36427	85.9124
2.36319	85.8103
2.36211	85.7783
2.36104	85.8615
2.35996	85.9162
2.35889	85.9359
2.35781	85.9858
2.35674	85.9531
2.35567	85.9364
2.3546	85.9184
2.35353	85.8466
2.35247	85.8736
2.3514	86.0176
2.35033	86.0336
2.34927	85.977
2.3482	85.9497
2.34714	85.861
2.34608	85.8258
2.34502	85.838
2.34396	85.8565
2.3429	85.9596
2.34184	86.0691
2.34078	86.0762
2.33973	86.0016
2.33867	85.9208
2.33762	85.9395
2.33656	86.0274
2.33551	85.9271
2.33446	85.8736
2.33341	85.9788
2.33236	85.8911
2.33131	85.8813
2.33026	86.0198
2.32922	85.9893
2.32817	85.9565
2.32712	86.0894
2.32608	86.1463
2.32504	86.0202
2.324	85.8721
2.32295	85.9791
2.32191	86.0589
2.32087	85.9775
2.31984	86.0303
2.3188	86.0672
2.31776	85.9873
2.31673	86.0339
2.31569	86.0271
2.31466	85.895
2.31362	86.01
2.31259	86.1433
2.31156	85.9654
2.31053	85.9215
2.3095	85.9388
2.30847	85.9056
2.30745	86.0361
2.30642	86.1513
2.3054	86.0169
2.30437	85.8431
2.30335	85.9109
2.30232	86.0435
2.3013	86.1555
2.30028	86.1583
2.29926	86.0427
2.29824	86.0021
2.29722	85.9269
2.29621	85.8172
2.29519	85.8432
2.29417	86.0184
2.29316	86.0598
2.29215	86.0054
2.29113	86.0106
2.29012	86.0275
2.28911	86.0355
2.2881	86.0787
2.28709	86.1037
2.28608	86.109
2.28507	86.0936
2.28407	86.2228
2.28306	86.202
2.28206	86.0939
2.28105	86.0761
2.28005	86.1047
2.27905	86.0266
2.27805	85.8985
2.27705	85.9194
2.27605	85.8977
2.27505	85.9992
2.27405	86.0785
2.27305	85.9758
2.27206	85.9543
2.27106	86.0374
2.27007	86.1483
2.26907	86.0929
2.26808	86.0957
2.26709	86.0991
2.2661	85.9917
2.26511	85.9438
2.26412	85.8966
2.26313	86.0381
2.26214	86.1136
2.26116	86.1799
2.26017	86.1972
2.25919	86.0659
2.2582	86.0037
2.25722	85.9711
2.25624	85.998
2.25526	85.9339
2.25428	85.9869
2.2533	86.1013
2.25232	86.0806
2.25134	85.9388
2.25036	85.8332
2.24939	85.8608
2.24841	85.9495
2.24744	86.0349
2.24646	85.9657
2.24549	85.8995
2.24452	85.9651
2.24355	86.0083
2.24257	85.8376
2.24161	85.8694
2.24064	86.0859
2.23967	86.0816
2.2387	85.9708
2.23774	85.9128
2.23677	85.9822
2.23581	86.0098
2.23484	85.8879
2.23388	85.8773
2.23292	85.9214
2.23196	85.9307
2.231	86.0658
2.23004	85.9665
2.22908	85.8108
2.22812	85.8373
2.22716	85.9495
2.22621	85.9031
2.22525	85.8613
2.2243	85.9537
2.22334	85.9631
2.22239	85.9147
2.22144	85.8888
2.22049	85.891
2.21953	86.0332
2.21859	86.0751
2.21764	85.9019
2.21669	85.7521
2.21574	85.7492
2.21479	85.8043
2.21385	85.7635
2.2129	85.766
2.21196	85.9205
2.21102	86.0195
2.21007	85.9104
2.20913	85.7609
2.20819	85.7412
2.20725	85.7208
2.20631	85.8032
2.20537	85.8462
2.20444	85.8847
2.2035	85.812
2.20256	85.7645
2.20163	85.9608
2.20069	86.1476
2.19976	85.9346
2.19883	85.7197
2.19789	85.7358
2.19696	85.9036
2.19603	85.8378
2.1951	85.6992
2.19417	85.7381
2.19325	85.8768
2.19232	85.7746
2.19139	85.8581
2.19047	85.9004
2.18954	85.7941
2.18862	85.8296
2.18769	85.9355
2.18677	85.9642
2.18585	85.9736
2.18493	85.8986
2.18401	85.6916
2.18309	85.7564
2.18217	85.8835
2.18125	85.9212
2.18033	85.9443
2.17942	85.8997
2.1785	85.9472
2.17759	85.9625
2.17667	85.9
2.17576	85.922
2.17485	85.9066
2.17393	85.9355
2.17302	85.9859
2.17211	85.767
2.1712	85.7511
2.17029	85.941
2.16939	86.0109
2.16848	86.0994
2.16757	86.149
2.16667	86.0085
2.16576	85.8077
2.16486	85.8381
2.16395	85.9897
2.16305	86.0576
2.16215	86.0762
2.16125	85.99
2.16035	85.9568
2.15945	85.8623
2.15855	85.7873
2.15765	85.8077
2.15675	85.9949
2.15586	86.0104
2.15496	85.9246
2.15406	85.8613
2.15317	86.0201
2.15228	86.1416
2.15138	86.0742
2.15049	86.0355
2.1496	86.0335
2.14871	86.0767
2.14782	86.201
2.14693	86.0743
2.14604	85.9739
2.14515	85.982
2.14427	85.948
2.14338	85.8558
2.14249	85.9414
2.14161	86.0262
2.14072	86.1041
2.13984	86.0847
2.13896	86.0516
2.13808	85.9883
2.13719	86.0851
2.13631	86.2135
2.13543	86.1619
2.13455	85.9854
2.13368	86.022
2.1328	85.9025
2.13192	85.7716
2.13105	85.8302
2.13017	86.0874
2.1293	86.1137
2.12842	86.1011
2.12755	86.1123
2.12668	86.0773
2.1258	86.0649
2.12493	86.0725
2.12406	86.07
2.12319	85.9936
2.12232	85.9691
2.12145	86.0182
2.12059	85.9086
2.11972	85.8025
2.11885	86.0254
2.11799	86.21
2.11712	86.2478
2.11626	86.2512
2.1154	86.0918
2.11453	86.0603
2.11367	86.0866
2.11281	85.9746
2.11195	85.7699
2.11109	85.7162
2.11023	85.9099
2.10937	85.9907
2.10851	85.9169
2.10766	86.031
2.1068	86.1911
2.10594	86.0718
2.10509	85.9995
2.10423	86.119
2.10338	86.1479
2.10253	86.0691
2.10168	86.0375
2.10082	86.1418
2.09997	86.1515
2.09912	86.0314
2.09827	86.0256
2.09742	85.8415
2.09658	85.8004
2.09573	85.819
2.09488	85.7287
2.09404	85.8841
2.09319	86.0784
2.09235	86.0648
2.0915	85.9203
2.09066	85.8191
2.08982	85.7338
2.08897	85.9846
2.08813	86.1433
2.08729	85.9212
2.08645	85.7625
2.08561	86.0305
2.08477	86.0557
2.08394	86.0981
2.0831	86.0851
2.08226	85.8343
2.08143	85.5885
2.08059	85.4574
2.07976	85.578
2.07892	85.9613
2.07809	86.319
2.07726	86.0129
2.07643	86.2202
2.07559	86.4963
2.07476	86.1743
2.07393	86.0616
2.0731	86.0151
2.07228	86.0571
2.07145	86.0724
2.07062	86.2404
2.06979	86.0589
2.06897	85.8028
2.06814	85.7822
2.06732	85.8226
2.06649	85.973
2.06567	86.1651
2.06485	86.0384
2.06403	85.9588
2.0632	86.0453
2.06238	86.027
2.06156	85.8677
2.06074	85.9129
2.05993	86.0151
2.05911	86.0228
2.05829	85.9263
2.05747	85.8905
2.05666	85.8136
2.05584	85.9489
2.05503	86.0119
2.05421	85.8642
2.0534	85.8403
2.05259	85.7703
2.05177	85.9185
2.05096	85.9054
2.05015	85.8844
2.04934	85.9629
2.04853	86.0694
2.04772	86.0012
2.04691	85.8311
2.04611	85.8848
2.0453	85.9703
2.04449	85.7841
2.04369	85.6506
2.04288	85.7905
2.04208	85.7999
2.04127	85.7276
2.04047	85.7347
2.03967	85.7628
2.03886	85.8952
2.03806	86.0467
2.03726	86.0007
2.03646	85.815
2.03566	85.7289
2.03486	85.9223
2.03407	86.0147
2.03327	85.8385
2.03247	85.5445
2.03167	85.4945
2.03088	85.6197
2.03008	85.7689
2.02929	85.8723
2.0285	86.0096
2.0277	86.0134
2.02691	85.8444
2.02612	85.7911
2.02533	85.8117
2.02453	85.7205
2.02374	85.6225
2.02295	85.7054
2.02217	85.8001
2.02138	85.9026
2.02059	86.0354
2.0198	86.2226
2.01902	86.0988
2.01823	85.7929
2.01744	85.638
2.01666	85.679
2.01588	85.7651
2.01509	85.8564
2.01431	85.8611
2.01353	85.5752
2.01275	85.5718
2.01196	85.8297
2.01118	85.9858
2.0104	85.9701
2.00963	85.9933
2.00885	85.9229
2.00807	85.8477
2.00729	85.759
2.00651	85.5696
2.00574	85.6247
2.00496	85.8688
2.00419	85.843
2.00341	85.7868
2.00264	85.9728
2.00187	85.9093
2.00109	85.735
2.00032	85.7252
