Name: Thenardite Na2SO4
Type: Mineral
Class: Sulfate
Subclass: None
Particle Size: Unsieved coarse powder
Sample No.: None
Owner: USGS
Wavelength range: 0.40 - 14.05 um
Origin: Saline Valley, California

Description: Thenardite from Saline Valley, California





Measurement: Directional Hemispherical Reflectance
First Column: X
Second Column: Y
X Units: Wavelength (micrometers)
Y Units: Reflectance (percent)
First X Value: 14.05105
Last X Value: 0.40000
Number of X Values: 2756
Additional Information: None

 14.051   6.4684
 14.013   6.5405
 13.975   6.7465
 13.938   6.6538
 13.900   6.7053
 13.863   6.7362
 13.826   6.9422
 13.790   7.0040
 13.753   7.2203
 13.717   7.3954
 13.680   7.7353
 13.644   7.8589
 13.609   7.9310
 13.573   7.9516
 13.538   8.0649
 13.502   8.0546
 13.467   8.1576
 13.432   8.1370
 13.398   8.1370
 13.363   8.1473
 13.329   8.3121
 13.295   8.3739
 13.261   8.4460
 13.227   8.4254
 13.193   8.5284
 13.160   8.5902
 13.126   8.6314
 13.093   8.6417
 13.060   8.8168
 13.027   8.8168
 12.995   8.8580
 12.962   8.7550
 12.930   8.7756
 12.898   8.7962
 12.866   8.8889
 12.834   8.9095
 12.802   9.0228
 12.771   9.0640
 12.739   9.1773
 12.708   9.1773
 12.677   9.2906
 12.646   9.3833
 12.616   9.5275
 12.585   9.5996
 12.554   9.7026
 12.524   9.7438
 12.494   9.8262
 12.464   9.9086
 12.434  10.1043
 12.404  10.1661
 12.375  10.3103
 12.345  10.4957
 12.316  10.7738
 12.287  10.9180
 12.258  11.1137
 12.229  11.1652
 12.200  11.2270
 12.171  11.2579
 12.143  11.3815
 12.115  11.4536
 12.086  11.6802
 12.058  11.8656
 12.030  12.0613
 12.002  12.2158
 11.975  12.4218
 11.947  12.5866
 11.920  12.7514
 11.892  12.7926
 11.865  12.8853
 11.838  12.9059
 11.811  13.0192
 11.784  13.0810
 11.757  13.1325
 11.731  13.1634
 11.704  13.1531
 11.678  13.0089
 11.652  12.9986
 11.626  12.9677
 11.600  12.9677
 11.574  12.8441
 11.548  12.7102
 11.522  12.4424
 11.497  12.1643
 11.471  11.9274
 11.446  12.0201
 11.421  12.2467
 11.396  12.5454
 11.371  12.5763
 11.346  12.5145
 11.321  12.5248
 11.297  12.6793
 11.272  12.6999
 11.248  12.7617
 11.223  12.8235
 11.199  12.9265
 11.175  12.9265
 11.151  12.9471
 11.127  12.8853
 11.103  12.8853
 11.079  12.9471
 11.056  13.0398
 11.032  13.0604
 11.009  13.1531
 10.985  13.2046
 10.962  13.3076
 10.939  13.2252
 10.916  13.0913
 10.893  12.9471
 10.870  12.9162
 10.848  12.7926
 10.825  12.6793
 10.802  12.4836
 10.780  12.3291
 10.758  12.2364
 10.735  12.3291
 10.713  12.3600
 10.691  12.4012
 10.669  12.3806
 10.647  12.4012
 10.625  12.3394
 10.604  12.2364
 10.582  12.0819
 10.560  11.9995
 10.539  11.8965
 10.518  11.8656
 10.496  11.8347
 10.475  11.8141
 10.454  11.6905
 10.433  11.6390
 10.412  11.4742
 10.391  11.3094
 10.370  11.1343
 10.350  11.0519
 10.329  10.9180
 10.309  10.7738
 10.288  10.6090
 10.268  10.5060
 10.247  10.0116
 10.227   9.5584
 10.207   9.7129
 10.187   9.9807
 10.167   9.9498
 10.147   9.8983
 10.127   9.7747
 10.108   9.7026
 10.088   9.5275
 10.068   9.4451
 10.049   9.4348
 10.029   9.5584
 10.010   9.5687
  9.991   9.5687
  9.972   9.4863
  9.952   9.4554
  9.933   9.4451
  9.914   9.4554
  9.895   9.3936
  9.877   9.3318
  9.858   9.2185
  9.839   9.2391
  9.821   9.1979
  9.802   9.1464
  9.783   9.1258
  9.765   9.1773
  9.747   9.1979
  9.728   9.2082
  9.710   9.1773
  9.692   9.2082
  9.674   9.1773
  9.656   9.1155
  9.638   9.0228
  9.620   8.9713
  9.602   8.8271
  9.585   8.7859
  9.567   8.7447
  9.549   8.6829
  9.532   8.5902
  9.514   8.6211
  9.497   8.5387
  9.479   8.4769
  9.462   8.3739
  9.445   8.3430
  9.428   8.2709
  9.411   8.1576
  9.394   7.9722
  9.377   7.9104
  9.360   7.9001
  9.343   7.8692
  9.326   7.7250
  9.309   7.7250
  9.293   7.6632
  9.276   7.5705
  9.259   7.4778
  9.243   7.4572
  9.226   7.3748
  9.210   7.3748
  9.194   7.4057
  9.178   7.4881
  9.161   7.6529
  9.145   7.8692
  9.129   8.0649
  9.113   8.4048
  9.097   8.7344
  9.081   9.3421
  9.065  10.1146
  9.049  10.9283
  9.034  11.6390
  9.018  12.3806
  9.002  13.0810
  8.987  13.8844
  8.971  14.7187
  8.956  15.6663
  8.940  16.6448
  8.925  17.9117
  8.909  19.4052
  8.894  20.9605
  8.879  22.2686
  8.864  23.4016
  8.849  24.2874
  8.834  24.8436
  8.819  24.9157
  8.804  24.8436
  8.789  24.7097
  8.774  24.6067
  8.759  24.3492
  8.744  24.1329
  8.730  23.8857
  8.715  23.6282
  8.700  23.4428
  8.686  23.3192
  8.671  23.1544
  8.657  23.0411
  8.642  22.8969
  8.628  22.7527
  8.614  22.6188
  8.599  22.5982
  8.585  22.5776
  8.571  22.6909
  8.557  22.9381
  8.543  23.3604
  8.529  23.9681
  8.515  24.7921
  8.501  25.6058
  8.487  26.4401
  8.473  27.1302
  8.459  27.5010
  8.445  27.1920
  8.431  26.4092
  8.418  25.5852
  8.404  24.9569
  8.391  24.3492
  8.377  23.8239
  8.363  23.3604
  8.350  23.0205
  8.337  22.6703
  8.323  22.2789
  8.310  21.4549
  8.297  19.9202
  8.283  17.8705
  8.270  15.7899
  8.257  13.8020
  8.244  12.0510
  8.231  10.4854
  8.218   9.1361
  8.205   7.9310
  8.192   6.9731
  8.179   6.1079
  8.166   5.3354
  8.153   4.6659
  8.140   4.1097
  8.128   3.5947
  8.115   3.1827
  8.102   2.7707
  8.090   2.4720
  8.077   2.2248
  8.064   2.0188
  8.052   1.8437
  8.039   1.7613
  8.027   1.6995
  8.015   1.6274
  8.002   1.5038
  7.990   1.4935
  7.978   1.4317
  7.965   1.4008
  7.953   1.3287
  7.941   1.3184
  7.929   1.2772
  7.917   1.2360
  7.905   1.2257
  7.893   1.2154
  7.881   1.1433
  7.869   1.1742
  7.857   1.2051
  7.845   1.2566
  7.833   1.2360
  7.821   1.2566
  7.809   1.2566
  7.798   1.2978
  7.786   1.2978
  7.774   1.3390
  7.763   1.3493
  7.751   1.3905
  7.739   1.4111
  7.728   1.4832
  7.716   1.5244
  7.705   1.5759
  7.694   1.5965
  7.682   1.6377
  7.671   1.6377
  7.659   1.6892
  7.648   1.7201
  7.637   1.8540
  7.626   1.9467
  7.614   2.0188
  7.603   2.0291
  7.592   2.1012
  7.581   2.1733
  7.570   2.2969
  7.559   2.3278
  7.548   2.4205
  7.537   2.5029
  7.526   2.5853
  7.515   2.6265
  7.504   2.6986
  7.493   2.7707
  7.483   2.8737
  7.472   2.9561
  7.461   3.0488
  7.450   3.1003
  7.440   3.1415
  7.429   3.2239
  7.418   3.3372
  7.408   3.3784
  7.397   3.4299
  7.387   3.5123
  7.376   3.7183
  7.366   3.8316
  7.355   3.9861
  7.345   4.2024
  7.334   4.3878
  7.324   4.4805
  7.314   4.6762
  7.303   4.8616
  7.293   5.0779
  7.283   5.2530
  7.273   5.4899
  7.263   5.7268
  7.252   5.9328
  7.242   6.1285
  7.232   6.3551
  7.222   6.4890
  7.212   6.6538
  7.202   6.8289
  7.192   7.0040
  7.182   7.0658
  7.172   7.2100
  7.162   7.3851
  7.152   7.5293
  7.143   7.6632
  7.133   7.8486
  7.123   7.9207
  7.113   8.0031
  7.103   8.3121
  7.094   8.8374
  7.084   9.2597
  7.074   9.5790
  7.065   9.8262
  7.055   9.9601
  7.046  10.0116
  7.036  10.0322
  7.026  10.0116
  7.017  10.2279
  7.007  10.5987
  6.998  10.9077
  6.989  11.1240
  6.979  11.1858
  6.970  11.0004
  6.960  11.1446
  6.951  11.6802
  6.942  12.0098
  6.932  12.2158
  6.923  12.4836
  6.914  12.6896
  6.905  12.9162
  6.896  13.1119
  6.886  13.2870
  6.877  13.4621
  6.868  13.6990
  6.859  13.9668
  6.850  14.1419
  6.841  14.1934
  6.832  14.2964
  6.823  14.4097
  6.814  14.5024
  6.805  14.5642
  6.796  14.5848
  6.787  14.5745
  6.778  14.4509
  6.770  14.1007
  6.761  13.8020
  6.752  14.0492
  6.743  14.8938
  6.734  15.5736
  6.726  16.0062
  6.717  16.3152
  6.708  16.5727
  6.700  16.7684
  6.691  16.9435
  6.682  17.1804
  6.674  17.4585
  6.665  17.6130
  6.657  17.7263
  6.648  17.8602
  6.640  18.1280
  6.631  18.4164
  6.623  18.4782
  6.614  18.4782
  6.606  18.5606
  6.597  18.5812
  6.589  18.6430
  6.581  18.7151
  6.572  18.8593
  6.564  18.9520
  6.556  18.8490
  6.547  18.7357
  6.539  18.6430
  6.531  18.5091
  6.523  18.3649
  6.514  18.1280
  6.506  17.7469
  6.498  17.4791
  6.490  17.2525
  6.482  16.7066
  6.474  16.0062
  6.466  15.2440
  6.458  14.4097
  6.450  13.5239
  6.442  12.6690
  6.434  11.8656
  6.426  11.1343
  6.418  10.6708
  6.410  10.6193
  6.402  10.4751
  6.394  10.3515
  6.386  10.3618
  6.378  10.3721
  6.370  10.2897
  6.363  10.1867
  6.355  10.0528
  6.347  10.0219
  6.339   9.9601
  6.332   9.8571
  6.324   9.7747
  6.316   9.7026
  6.308   9.6202
  6.301   9.5996
  6.293   9.5687
  6.286   9.6202
  6.278   9.6408
  6.270   9.6717
  6.263   9.6408
  6.255   9.5687
  6.248   9.3318
  6.240   8.9301
  6.233   8.4666
  6.225   8.0958
  6.218   7.9207
  6.210   8.0134
  6.203   8.1885
  6.195   8.4151
  6.188   8.5902
  6.181   8.7756
  6.173   8.9507
  6.166   9.3009
  6.159   9.9292
  6.151  10.7841
  6.144  11.4845
  6.137  11.9583
  6.130  12.0922
  6.122  11.9583
  6.115  11.6081
  6.108  11.1137
  6.101  10.6296
  6.094  10.5060
  6.086  10.8047
  6.079  11.4536
  6.072  12.3600
  6.065  13.3488
  6.058  14.0698
  6.051  14.6466
  6.044  15.2131
  6.037  15.5427
  6.030  15.6869
  6.023  15.9032
  6.016  16.1195
  6.009  16.3255
  6.002  16.4800
  5.995  16.6448
  5.988  16.8714
  5.981  17.0774
  5.974  17.1186
  5.967  17.1392
  5.960  17.0671
  5.954  16.9538
  5.947  16.8920
  5.940  17.1495
  5.933  17.5718
  5.926  18.0044
  5.920  18.4164
  5.913  18.8696
  5.906  19.3640
  5.899  19.9820
  5.893  20.7751
  5.886  21.4549
  5.879  22.1347
  5.873  22.7527
  5.866  22.8969
  5.859  23.0308
  5.853  23.2059
  5.846  23.4016
  5.840  23.4737
  5.833  23.5046
  5.827  23.4428
  5.820  23.2677
  5.813  22.7939
  5.807  22.1244
  5.800  21.5373
  5.794  21.0223
  5.788  20.5794
  5.781  20.2910
  5.775  20.1468
  5.768  20.1468
  5.762  20.2189
  5.755  20.1262
  5.749  20.0438
  5.743  20.0438
  5.736  19.9820
  5.730  19.9099
  5.724  19.7554
  5.717  19.5803
  5.711  19.5082
  5.705  19.6318
  5.698  19.9305
  5.692  20.4249
  5.686  20.9502
  5.680  21.3210
  5.674  21.6403
  5.667  21.9699
  5.661  22.2377
  5.655  22.5467
  5.649  22.8660
  5.643  23.2677
  5.637  23.7518
  5.630  24.1432
  5.624  24.5243
  5.618  24.9775
  5.612  25.4513
  5.606  25.8221
  5.600  26.1311
  5.594  26.4092
  5.588  26.6049
  5.582  26.8418
  5.576  27.0684
  5.570  27.1920
  5.564  27.2641
  5.558  27.3774
  5.552  27.4907
  5.546  27.6555
  5.540  27.7688
  5.534  27.8409
  5.528  27.8615
  5.523  27.9439
  5.517  27.9851
  5.511  27.9645
  5.505  27.9336
  5.499  27.9851
  5.493  28.0263
  5.487  28.1396
  5.482  28.3971
  5.476  28.8194
  5.470  29.3138
  5.464  29.9627
  5.459  30.7867
  5.453  31.6004
  5.447  32.3317
  5.441  32.9806
  5.436  33.4647
  5.430  33.8355
  5.424  34.2475
  5.419  34.7110
  5.413  35.1230
  5.407  35.6174
  5.402  36.1839
  5.396  36.7298
  5.390  37.1624
  5.385  37.4611
  5.379  37.6568
  5.374  37.7804
  5.368  37.8525
  5.363  37.9452
  5.357  38.0379
  5.352  38.1924
  5.346  38.3160
  5.341  38.3263
  5.335  38.3778
  5.330  38.4911
  5.324  38.5426
  5.319  38.5941
  5.313  38.6559
  5.308  38.7177
  5.302  38.7692
  5.297  38.8310
  5.291  38.8516
  5.286  38.8825
  5.281  38.9031
  5.275  38.9443
  5.270  39.0267
  5.265  39.1194
  5.259  39.1709
  5.254  39.2121
  5.249  39.2842
  5.243  39.3666
  5.238  39.4284
  5.233  39.5005
  5.227  39.5623
  5.222  39.6241
  5.217  39.6653
  5.212  39.7168
  5.206  39.7374
  5.201  39.7374
  5.196  39.7580
  5.191  39.8095
  5.186  39.7786
  5.180  39.7065
  5.175  39.7271
  5.170  39.7477
  5.165  39.6653
  5.160  39.5829
  5.155  39.5005
  5.150  39.4696
  5.145  39.3975
  5.139  39.2018
  5.134  38.9752
  5.129  38.7692
  5.124  38.6353
  5.119  38.6868
  5.114  38.7589
  5.109  38.7486
  5.104  38.6044
  5.099  38.4911
  5.094  38.3675
  5.089  38.2027
  5.084  38.0894
  5.079  37.9452
  5.074  37.7907
  5.069  37.6774
  5.064  37.5435
  5.059  37.3272
  5.054  37.1418
  5.049  36.9770
  5.044  36.7813
  5.040  36.5753
  5.035  36.4002
  5.030  36.3178
  5.025  36.2869
  5.020  36.2251
  5.015  36.1324
  5.010  36.0397
  5.005  35.9058
  5.001  35.7101
  4.996  35.5350
  4.991  35.3702
  4.986  35.1642
  4.981  34.9685
  4.977  34.7728
  4.972  34.5874
  4.967  34.3917
  4.962  34.1651
  4.958  33.9591
  4.953  33.7222
  4.948  33.4544
  4.943  33.1763
  4.939  32.8982
  4.934  32.6304
  4.929  32.2905
  4.925  31.8991
  4.920  31.5180
  4.915  31.1472
  4.911  30.7146
  4.906  30.2820
  4.901  29.8082
  4.897  29.3241
  4.892  28.8091
  4.888  28.2632
  4.883  27.6761
  4.878  27.0066
  4.874  26.3371
  4.869  25.6882
  4.865  25.0084
  4.860  24.2256
  4.856  23.4016
  4.851  22.4849
  4.846  21.4858
  4.842  20.4558
  4.837  19.6215
  4.833  18.9726
  4.828  18.2722
  4.824  17.3864
  4.819  16.2740
  4.815  15.0792
  4.810  13.8226
  4.806  12.4836
  4.802  11.0828
  4.797   9.5687
  4.793   8.0649
  4.788   6.8289
  4.784   5.8401
  4.779   4.9955
  4.775   4.4290
  4.771   4.2745
  4.766   4.3775
  4.762   4.4908
  4.758   4.5320
  4.753   4.5526
  4.749   4.5732
  4.744   4.5732
  4.740   4.5217
  4.736   4.4702
  4.731   4.5938
  4.727   4.9028
  4.723   5.3148
  4.719   5.8092
  4.714   6.3448
  4.710   6.7980
  4.706   7.1791
  4.701   7.5602
  4.697   7.9104
  4.693   8.2091
  4.689   8.4563
  4.684   8.6211
  4.680   8.6417
  4.676   8.5593
  4.672   8.4460
  4.668   8.3945
  4.663   8.4460
  4.659   8.5593
  4.655   8.7241
  4.651   8.8477
  4.647   8.9404
  4.643   9.1155
  4.638   9.2906
  4.634   9.4863
  4.630   9.7850
  4.626  10.1249
  4.622  10.3721
  4.618  10.4339
  4.614  10.3000
  4.610   9.9807
  4.605   9.5378
  4.601   9.0640
  4.597   8.7241
  4.593   8.4460
  4.589   8.1679
  4.585   7.9825
  4.581   7.8795
  4.577   7.8486
  4.573   7.9619
  4.569   8.1988
  4.565   8.6108
  4.561   9.3730
  4.557  10.6605
  4.553  12.3909
  4.549  14.0904
  4.545  15.3058
  4.541  15.9341
  4.537  15.9547
  4.533  15.4809
  4.529  14.6981
  4.525  13.6578
  4.521  12.6175
  4.517  11.7111
  4.513  10.9901
  4.509  10.5163
  4.505  10.1352
  4.502   9.7438
  4.498   9.3730
  4.494   9.1258
  4.490   9.0228
  4.486   9.0537
  4.482   9.0640
  4.478   8.9919
  4.474   8.8992
  4.470   8.8786
  4.467   8.8992
  4.463   8.9404
  4.459   8.9404
  4.455   8.8683
  4.451   8.7550
  4.447   8.6726
  4.444   8.6520
  4.440   8.7447
  4.436   8.8477
  4.432   8.9610
  4.428   9.0743
  4.425   9.2700
  4.421   9.4451
  4.417   9.6202
  4.413   9.8056
  4.410   9.9292
  4.406  10.0528
  4.402  10.2073
  4.398  10.3412
  4.395  10.5678
  4.391  10.7635
  4.387  10.8974
  4.384  10.9798
  4.380  10.9798
  4.376  10.9077
  4.372  10.7532
  4.369  10.5781
  4.365  10.4236
  4.361  10.2794
  4.358  10.1455
  4.354  10.0940
  4.350  10.1764
  4.347  10.3515
  4.343  10.6296
  4.340  11.0107
  4.336  11.4639
  4.332  11.9377
  4.329  12.3806
  4.325  12.7308
  4.321  13.0604
  4.318  13.4106
  4.314  13.8123
  4.311  14.1419
  4.307  14.4921
  4.304  14.9453
  4.300  15.5530
  4.296  16.3255
  4.293  17.1598
  4.289  17.9941
  4.286  18.8078
  4.282  19.4155
  4.279  19.6627
  4.275  19.5185
  4.272  19.1992
  4.268  19.1065
  4.265  19.5906
  4.261  20.5588
  4.258  21.8051
  4.254  23.1647
  4.251  24.6479
  4.247  26.0487
  4.244  27.2435
  4.240  28.1705
  4.237  28.8812
  4.233  29.4580
  4.230  29.9627
  4.226  30.4365
  4.223  30.8382
  4.219  31.0957
  4.216  31.3326
  4.213  31.6004
  4.209  31.9197
  4.206  32.1669
  4.202  32.3729
  4.199  32.6098
  4.196  32.8673
  4.192  33.0939
  4.189  33.3514
  4.185  33.5677
  4.182  33.8149
  4.179  34.0827
  4.175  34.3814
  4.172  34.6389
  4.169  34.8552
  4.165  35.0715
  4.162  35.3290
  4.159  35.5556
  4.155  35.8543
  4.152  36.0809
  4.149  36.2972
  4.145  36.5238
  4.142  36.7195
  4.139  36.8843
  4.135  37.1521
  4.132  37.4096
  4.129  37.6259
  4.126  37.8525
  4.122  38.0585
  4.119  38.2130
  4.116  38.4396
  4.112  38.7177
  4.109  38.9134
  4.106  39.0988
  4.103  39.3048
  4.099  39.5005
  4.096  39.7271
  4.093  39.9022
  4.090  40.0567
  4.086  40.2215
  4.083  40.3760
  4.080  40.5099
  4.077  40.6953
  4.074  40.8498
  4.070  41.0146
  4.067  41.1382
  4.064  41.3030
  4.061  41.5090
  4.058  41.6738
  4.055  41.8901
  4.051  42.0343
  4.048  42.1167
  4.045  42.2712
  4.042  42.4257
  4.039  42.5596
  4.036  42.7450
  4.032  42.9510
  4.029  43.0437
  4.026  43.1467
  4.023  43.3012
  4.020  43.4660
  4.017  43.6411
  4.014  43.8059
  4.011  43.8883
  4.008  44.0016
  4.004  44.0943
  4.001  44.1664
  3.998  44.2797
  3.995  44.3724
  3.992  44.4342
  3.989  44.4342
  3.986  44.4445
  3.983  44.5475
  3.980  44.6196
  3.977  44.7432
  3.974  44.8050
  3.971  44.8565
  3.968  44.9389
  3.965  45.0419
  3.962  45.1243
  3.959  45.2170
  3.956  45.2891
  3.953  45.3303
  3.950  45.3303
  3.947  45.3715
  3.944  45.4642
  3.941  45.5260
  3.938  45.4642
  3.935  45.4024
  3.932  45.3509
  3.929  45.3509
  3.926  45.3200
  3.923  45.3200
  3.920  45.3612
  3.917  45.4333
  3.914  45.5466
  3.911  45.6393
  3.908  45.5569
  3.905  45.5775
  3.902  45.6393
  3.899  45.6393
  3.896  45.5775
  3.893  45.5569
  3.890  45.4745
  3.887  45.5054
  3.884  45.5466
  3.882  45.5466
  3.879  45.5775
  3.876  45.5672
  3.873  45.4951
  3.870  45.4230
  3.867  45.3406
  3.864  45.2273
  3.861  44.9595
  3.858  44.6402
  3.856  44.3724
  3.853  44.2488
  3.850  44.1561
  3.847  44.1561
  3.844  44.2591
  3.841  44.3827
  3.838  44.4548
  3.836  44.5475
  3.833  44.6814
  3.830  44.8256
  3.827  44.9595
  3.824  45.1243
  3.822  45.2582
  3.819  45.3097
  3.816  45.1964
  3.813  45.0419
  3.810  44.8771
  3.807  44.7020
  3.805  44.5681
  3.802  44.5269
  3.799  44.6299
  3.796  44.8050
  3.794  45.0007
  3.791  45.2273
  3.788  45.3509
  3.785  45.3612
  3.782  45.2994
  3.780  45.3303
  3.777  45.3612
  3.774  45.3715
  3.771  45.3715
  3.769  45.3715
  3.766  45.4436
  3.763  45.5569
  3.761  45.5672
  3.758  45.6084
  3.755  45.6805
  3.752  45.7011
  3.750  45.7320
  3.747  45.8041
  3.744  45.8247
  3.742  45.8762
  3.739  45.9380
  3.736  45.9792
  3.733  45.9483
  3.731  45.9689
  3.728  45.9689
  3.725  45.9483
  3.723  45.9483
  3.720  45.9483
  3.717  45.9071
  3.715  45.8247
  3.712  45.7320
  3.709  45.6496
  3.707  45.5878
  3.704  45.5466
  3.702  45.5054
  3.699  45.4642
  3.696  45.2273
  3.694  45.0625
  3.691  45.0007
  3.688  44.8977
  3.686  44.7638
  3.683  44.6814
  3.680  44.6196
  3.678  44.5475
  3.675  44.4754
  3.673  44.4033
  3.670  44.2797
  3.667  44.1973
  3.665  44.1252
  3.662  44.1355
  3.660  44.0531
  3.657  43.9810
  3.655  43.9604
  3.652  43.8574
  3.649  43.7750
  3.647  43.6823
  3.644  43.5381
  3.642  43.5793
  3.639  43.6411
  3.637  43.5690
  3.634  43.4660
  3.632  43.3836
  3.629  43.3321
  3.626  43.3218
  3.624  43.1776
  3.621  43.1158
  3.619  43.0849
  3.616  43.0231
  3.614  42.8686
  3.611  42.7656
  3.609  42.7038
  3.606  42.6317
  3.604  42.5390
  3.601  42.4154
  3.599  42.3536
  3.596  42.3124
  3.594  42.1476
  3.591  41.9622
  3.589  41.8386
  3.586  41.7871
  3.584  41.7047
  3.581  41.5193
  3.579  41.3545
  3.576  41.2309
  3.574  41.1382
  3.571  41.0558
  3.569  40.8910
  3.567  40.7468
  3.564  40.6129
  3.562  40.4790
  3.559  40.3554
  3.557  40.2215
  3.554  40.0876
  3.552  39.9949
  3.549  39.7992
  3.547  39.6550
  3.545  39.5211
  3.542  39.3666
  3.540  39.1194
  3.537  38.9237
  3.535  38.8207
  3.533  38.7177
  3.530  38.5941
  3.528  38.4499
  3.525  38.2851
  3.523  38.0791
  3.521  37.8319
  3.518  37.6259
  3.516  37.4405
  3.513  37.2242
  3.511  36.9770
  3.509  36.8328
  3.506  36.7401
  3.504  36.6062
  3.502  36.3384
  3.499  36.2148
  3.497  36.2148
  3.494  36.1530
  3.492  35.9161
  3.490  35.8234
  3.487  35.8440
  3.485  35.7410
  3.483  35.5041
  3.480  35.4526
  3.478  35.4217
  3.476  35.2775
  3.473  35.1230
  3.471  35.0818
  3.469  34.9891
  3.466  34.8964
  3.464  34.7831
  3.462  34.7213
  3.460  34.6286
  3.457  34.5668
  3.455  34.4226
  3.453  34.3299
  3.450  34.2372
  3.448  34.0621
  3.446  33.9076
  3.443  33.8149
  3.441  33.6913
  3.439  33.4956
  3.437  33.3720
  3.434  33.2793
  3.432  33.0012
  3.430  32.7746
  3.428  32.6201
  3.425  32.5171
  3.423  32.4450
  3.421  32.4038
  3.418  32.2493
  3.416  32.0742
  3.414  31.8888
  3.412  31.7755
  3.409  31.7240
  3.407  31.6828
  3.405  31.6416
  3.403  31.6519
  3.401  31.6107
  3.398  31.5489
  3.396  31.4356
  3.394  31.3223
  3.392  31.2193
  3.389  31.1678
  3.387  31.0854
  3.385  31.0545
  3.383  30.9309
  3.381  30.7764
  3.378  30.6734
  3.376  30.6528
  3.374  30.4880
  3.372  30.3438
  3.370  30.1996
  3.367  30.1172
  3.365  30.1172
  3.363  30.0966
  3.361  29.9627
  3.359  29.8494
  3.357  29.7670
  3.354  29.6537
  3.352  29.5301
  3.350  29.4889
  3.348  29.4477
  3.346  29.4065
  3.344  29.1902
  3.341  29.0666
  3.339  29.0769
  3.337  29.0254
  3.335  28.9018
  3.333  28.7988
  3.331  28.6340
  3.329  28.5825
  3.326  28.5516
  3.324  28.4898
  3.322  28.4177
  3.320  28.3353
  3.318  28.2117
  3.316  28.1190
  3.314  28.0263
  3.312  27.8718
  3.309  27.7379
  3.307  27.6246
  3.305  27.4907
  3.303  27.4392
  3.301  27.3259
  3.299  27.2641
  3.297  27.1508
  3.295  26.9963
  3.293  26.8521
  3.291  26.7388
  3.288  26.6358
  3.286  26.5534
  3.284  26.4092
  3.282  26.3165
  3.280  26.2135
  3.278  26.1002
  3.276  25.9972
  3.274  25.8736
  3.272  25.7397
  3.270  25.6058
  3.268  25.4410
  3.266  25.2659
  3.264  25.0702
  3.262  24.9054
  3.259  24.7303
  3.257  24.5964
  3.255  24.3698
  3.253  24.0505
  3.251  23.7415
  3.249  23.4428
  3.247  23.0720
  3.245  22.9072
  3.243  22.9175
  3.241  22.9381
  3.239  22.9278
  3.237  22.9381
  3.235  22.9278
  3.233  22.9278
  3.231  22.8763
  3.229  22.8042
  3.227  22.7012
  3.225  22.7424
  3.223  22.7939
  3.221  22.8454
  3.219  22.8557
  3.217  22.8557
  3.215  22.8042
  3.213  22.7527
  3.211  22.7115
  3.209  22.7115
  3.207  22.6703
  3.205  22.5570
  3.203  22.5261
  3.201  22.5467
  3.199  22.4025
  3.197  22.2583
  3.195  22.1656
  3.193  22.1141
  3.191  22.0111
  3.189  21.8669
  3.187  21.7948
  3.185  21.8154
  3.183  21.7124
  3.182  21.6094
  3.180  21.5476
  3.178  21.5579
  3.176  21.4446
  3.174  21.3519
  3.172  21.2798
  3.170  21.2077
  3.168  21.1253
  3.166  21.0532
  3.164  20.8781
  3.162  20.8060
  3.160  20.8163
  3.158  20.7751
  3.156  20.6721
  3.154  20.5691
  3.152  20.4043
  3.151  20.3734
  3.149  20.3734
  3.147  20.3219
  3.145  20.2189
  3.143  20.2189
  3.141  20.2086
  3.139  20.1262
  3.137  19.9717
  3.135  19.8790
  3.133  19.7451
  3.132  19.6421
  3.130  19.5494
  3.128  19.5494
  3.126  19.5185
  3.124  19.4361
  3.122  19.3331
  3.120  19.2507
  3.118  19.2095
  3.117  19.1580
  3.115  19.0344
  3.113  18.9520
  3.111  18.9108
  3.109  18.8902
  3.107  18.8387
  3.105  18.8696
  3.103  18.8696
  3.102  18.8284
  3.100  18.8181
  3.098  18.8902
  3.096  18.8902
  3.094  18.8593
  3.092  18.8181
  3.091  18.8078
  3.089  18.7460
  3.087  18.6224
  3.085  18.5194
  3.083  18.5709
  3.081  18.5194
  3.079  18.5194
  3.078  18.4885
  3.076  18.4576
  3.074  18.3958
  3.072  18.3649
  3.070  18.3340
  3.069  18.4061
  3.067  18.3443
  3.065  18.2619
  3.063  18.1280
  3.061  18.0971
  3.060  18.1177
  3.058  18.0868
  3.056  18.0147
  3.054  18.0353
  3.052  18.0971
  3.051  18.1486
  3.049  18.0765
  3.047  17.9220
  3.045  17.7263
  3.043  17.6542
  3.042  17.7057
  3.040  17.7675
  3.038  17.7469
  3.036  17.8087
  3.034  17.7572
  3.033  17.6748
  3.031  17.6439
  3.029  17.5924
  3.027  17.6027
  3.026  17.6130
  3.024  17.5718
  3.022  17.4894
  3.020  17.3864
  3.019  17.3658
  3.017  17.4173
  3.015  17.4173
  3.013  17.3864
  3.012  17.3143
  3.010  17.2319
  3.008  17.2010
  3.006  17.1495
  3.005  17.1392
  3.003  17.1083
  3.001  17.1701
  2.999  17.1495
  2.998  17.1083
  2.996  17.0053
  2.994  16.9332
  2.992  16.9229
  2.991  16.9744
  2.989  16.9744
  2.987  17.0362
  2.986  17.0259
  2.984  16.9950
  2.982  16.9332
  2.980  16.9435
  2.979  16.9126
  2.977  16.9126
  2.975  16.8817
  2.974  16.9847
  2.972  16.9023
  2.970  16.7890
  2.968  16.7787
  2.967  16.8405
  2.965  16.8611
  2.963  16.8920
  2.962  16.7581
  2.960  16.7478
  2.958  16.8405
  2.957  16.8817
  2.955  16.8405
  2.953  16.8508
  2.952  16.7684
  2.950  16.7684
  2.948  16.7787
  2.947  16.7890
  2.945  16.7066
  2.943  16.6551
  2.942  16.6551
  2.940  16.6654
  2.938  16.6963
  2.937  16.6654
  2.935  16.5933
  2.933  16.5830
  2.932  16.7272
  2.930  16.8714
  2.928  16.7993
  2.927  16.8302
  2.925  16.8714
  2.923  16.9744
  2.922  16.8817
  2.920  16.9229
  2.918  16.8817
  2.917  16.8405
  2.915  16.9950
  2.913  17.1186
  2.912  17.1804
  2.910  17.1186
  2.909  16.9847
  2.907  17.0259
  2.905  17.1392
  2.904  17.2422
  2.902  17.2731
  2.900  17.4997
  2.899  17.5100
  2.897  17.4482
  2.896  17.4894
  2.894  17.5512
  2.892  17.5100
  2.891  17.6027
  2.889  17.6336
  2.887  17.6851
  2.886  17.7469
  2.884  17.8396
  2.883  17.8808
  2.881  17.8293
  2.879  17.8808
  2.878  17.9426
  2.876  17.9117
  2.875  17.7984
  2.873  17.7469
  2.871  17.7469
  2.870  17.7675
  2.868  17.8293
  2.867  17.7881
  2.865  17.8190
  2.864  17.7160
  2.862  17.6233
  2.860  17.6542
  2.859  17.5306
  2.857  17.3143
  2.856  17.3658
  2.854  17.3452
  2.853  17.3246
  2.851  17.4070
  2.849  17.5924
  2.848  17.7984
  2.846  18.0971
  2.845  18.4370
  2.843  18.7769
  2.842  18.9623
  2.840  19.1786
  2.838  19.3331
  2.837  19.4876
  2.835  19.8172
  2.834  20.1571
  2.832  20.2601
  2.831  20.4455
  2.829  20.6103
  2.828  20.7236
  2.826  20.8163
  2.825  21.0841
  2.823  21.1562
  2.821  21.3313
  2.820  21.5888
  2.818  21.7124
  2.817  21.7433
  2.815  21.9596
  2.814  22.1656
  2.812  22.4231
  2.811  22.6703
  2.809  22.8042
  2.808  22.9072
  2.806  23.1029
  2.805  23.2780
  2.803  23.4325
  2.802  23.6282
  2.800  23.8239
  2.799  23.9887
  2.797  24.2050
  2.796  24.3080
  2.794  24.5243
  2.793  24.7406
  2.791  24.8642
  2.790  24.9878
  2.788  25.2556
  2.787  25.5646
  2.785  25.8015
  2.784  25.9045
  2.782  26.1723
  2.781  26.3783
  2.779  26.5019
  2.778  26.7388
  2.776  26.9345
  2.775  27.1714
  2.773  27.5010
  2.772  27.8100
  2.770  28.2014
  2.769  28.5928
  2.767  28.9739
  2.766  29.1387
  2.764  29.3859
  2.763  29.8082
  2.761  30.1790
  2.760  30.5189
  2.758  30.8485
  2.757  31.1781
  2.756  31.5695
  2.754  31.8888
  2.753  32.4141
  2.751  32.8158
  2.750  33.1660
  2.748  33.7325
  2.747  34.3402
  2.745  34.6698
  2.744  35.0921
  2.742  35.5659
  2.741  36.1633
  2.740  36.7504
  2.738  37.2448
  2.737  37.4405
  2.735  37.8010
  2.734  38.2233
  2.732  38.6765
  2.731  39.2224
  2.729  39.8816
  2.728  40.4481
  2.727  40.8601
  2.725  41.3133
  2.724  41.9313
  2.722  42.2506
  2.721  42.5699
  2.719  42.9819
  2.718  43.4660
  2.717  44.0428
  2.715  44.4033
  2.714  44.7638
  2.712  45.3303
  2.711  45.7732
  2.709  45.9071
  2.708  45.8968
  2.707  46.2882
  2.705  46.7723
  2.704  47.1328
  2.702  47.6169
  2.701  48.1628
  2.700  48.5336
  2.698  49.2958
  2.697  50.3361
  2.695  51.0159
  2.694  51.4897
  2.693  52.0047
  2.691  52.4682
  2.690  52.9626
  2.688  53.1995
  2.687  53.6527
  2.686  54.1780
  2.684  54.7033
  2.683  55.0947
  2.681  55.3213
  2.680  55.4449
  2.679  56.0011
  2.677  56.2277
  2.676  56.2998
  2.675  56.3719
  2.673  56.5470
  2.672  56.7530
  2.670  57.1753
  2.669  57.4122
  2.668  57.6800
  2.666  57.6594
  2.665  57.6182
  2.664  57.7315
  2.662  57.8757
  2.661  58.0096
  2.659  58.1847
  2.658  58.2774
  2.657  58.4216
  2.655  58.6791
  2.654  58.9572
  2.653  58.9984
  2.651  59.1220
  2.650  59.0808
  2.649  59.0190
  2.647  58.9984
  2.646  59.0602
  2.645  59.1838
  2.643  59.3177
  2.642  59.2868
  2.640  59.5855
  2.639  59.7915
  2.638  59.7812
  2.636  59.8533
  2.635  60.1623
  2.634  60.2756
  2.632  60.2035
  2.631  60.0799
  2.630  60.1108
  2.628  60.2241
  2.627  60.4713
  2.626  60.4404
  2.624  60.2035
  2.623  60.1520
  2.622  60.4404
  2.620  60.8009
  2.619  60.8627
  2.618  60.5743
  2.617  60.5434
  2.615  60.6258
  2.614  60.8318
  2.613  60.6876
  2.611  60.7803
  2.610  60.8936
  2.609  60.8421
  2.607  60.8112
  2.606  60.8627
  2.605  60.7906
  2.603  60.8524
  2.602  61.0069
  2.601  60.9348
  2.599  60.6979
  2.598  60.7082
  2.597  60.9863
  2.596  61.4601
  2.594  61.4601
  2.593  61.0893
  2.592  60.8421
  2.590  60.7597
  2.589  60.6155
  2.588  60.6979
  2.586  60.8833
  2.585  60.8009
  2.584  60.7597
  2.583  60.9554
  2.581  60.8627
  2.580  60.6876
  2.579  60.6876
  2.577  60.8009
  2.576  60.6258
  2.575  60.4816
  2.574  60.4610
  2.572  60.4610
  2.571  60.4404
  2.570  60.3786
  2.569  60.2344
  2.567  60.2550
  2.566  60.2756
  2.565  60.4404
  2.563  60.3065
  2.562  60.3271
  2.561  60.4095
  2.560  60.4095
  2.558  60.3271
  2.557  60.2756
  2.556  60.1932
  2.555  60.1520
  2.553  59.9563
  2.552  59.9151
  2.551  59.8636
  2.550  59.8121
  2.548  59.8018
  2.547  60.0078
  2.546  59.9254
  2.545  59.9666
  2.543  60.0902
  2.542  60.1623
  2.541  60.0799
  2.540  60.0284
  2.538  60.1829
  2.537  60.5640
  2.536  60.7288
  2.535  60.5846
  2.533  60.3477
  2.532  60.5537
  2.531  60.5743
  2.530  60.5022
  2.528  60.5846
  2.527  60.7494
  2.526  60.7803
  2.525  61.0687
  2.524  61.2335
  2.522  61.0584
  2.521  61.0172
  2.520  61.0378
  2.519  60.9863
  2.517  61.0069
  2.516  61.0687
  2.515  61.3571
  2.514  61.6970
  2.513  61.7073
  2.511  61.3983
  2.510  61.3468
  2.509  61.5837
  2.508  61.6146
  2.506  61.6352
  2.505  61.6558
  2.504  61.5734
  2.503  61.6970
  2.502  61.6661
  2.500  61.9339
  2.500  61.9339
  2.498  61.9829
  2.496  62.3613
  2.494  61.8498
  2.492  62.1725
  2.490  62.2144
  2.488  62.2712
  2.486  62.1988
  2.484  62.1007
  2.482  62.1937
  2.480  62.2340
  2.478  62.3156
  2.476  62.1917
  2.474  62.0424
  2.472  62.3903
  2.470  62.2868
  2.468  62.3430
  2.466  62.1493
  2.464  62.3908
  2.462  62.2696
  2.460  62.3422
  2.458  62.4152
  2.456  62.3156
  2.454  62.1373
  2.452  62.2794
  2.450  62.4539
  2.448  62.3831
  2.446  62.1736
  2.444  62.2103
  2.442  62.2620
  2.440  62.3194
  2.438  62.2877
  2.436  62.3034
  2.434  62.6497
  2.432  62.8486
  2.430  62.7686
  2.428  62.7801
  2.426  63.2960
  2.424  63.3675
  2.422  63.4129
  2.420  63.8256
  2.418  63.9821
  2.416  64.1237
  2.414  64.4166
  2.412  64.6028
  2.410  64.8291
  2.408  65.2124
  2.406  65.4050
  2.404  65.4867
  2.402  65.6927
  2.400  65.7650
  2.398  65.9586
  2.396  65.9337
  2.394  66.2120
  2.392  66.1697
  2.390  66.5921
  2.388  66.6488
  2.386  66.7780
  2.384  66.9110
  2.382  67.0730
  2.380  67.2150
  2.378  67.4601
  2.376  67.6738
  2.374  67.6055
  2.372  67.8052
  2.370  68.0172
  2.368  68.2015
  2.366  68.4446
  2.364  68.4392
  2.362  68.6613
  2.360  68.7962
  2.358  69.0685
  2.356  69.1321
  2.354  69.2321
  2.352  69.4166
  2.350  69.5823
  2.348  69.7204
  2.346  69.6119
  2.344  69.6749
  2.342  69.7520
  2.340  69.8749
  2.338  69.9909
  2.336  70.1624
  2.334  70.3182
  2.332  70.4946
  2.330  70.4858
  2.328  70.5946
  2.326  70.6724
  2.324  70.7818
  2.322  70.8472
  2.320  70.9320
  2.318  70.9705
  2.316  71.1439
  2.314  71.1901
  2.312  71.3448
  2.310  71.3920
  2.308  71.3881
  2.306  71.4184
  2.304  71.5012
  2.302  71.4644
  2.300  71.4399
  2.298  71.5569
  2.296  71.5872
  2.294  71.5567
  2.292  71.4795
  2.290  71.5735
  2.288  71.4279
  2.286  71.5496
  2.284  71.7078
  2.282  71.5940
  2.280  71.6748
  2.278  71.4493
  2.276  71.4958
  2.274  71.4252
  2.272  71.4874
  2.270  71.4471
  2.268  71.4997
  2.266  71.4950
  2.264  71.3669
  2.262  71.3597
  2.260  71.3985
  2.258  71.2500
  2.256  71.2415
  2.254  71.3378
  2.252  71.3794
  2.250  71.2817
  2.248  71.2077
  2.246  71.1275
  2.244  71.2468
  2.242  71.2703
  2.240  71.1013
  2.238  71.0523
  2.236  71.1027
  2.234  71.1102
  2.232  71.0605
  2.230  71.0832
  2.228  71.1000
  2.226  71.0807
  2.224  70.9818
  2.222  71.0009
  2.220  71.0355
  2.218  71.0227
  2.216  70.9871
  2.214  70.9434
  2.212  70.9091
  2.210  71.0085
  2.208  71.0490
  2.206  70.9753
  2.204  70.9624
  2.202  71.0415
  2.200  71.1833
  2.198  71.3922
  2.196  71.3698
  2.194  71.2131
  2.192  71.2048
  2.190  71.2121
  2.188  71.2253
  2.186  71.3612
  2.184  71.3664
  2.182  71.2859
  2.180  71.2850
  2.178  71.3989
  2.176  71.5120
  2.174  71.4974
  2.172  71.4603
  2.170  71.6182
  2.168  71.6820
  2.166  71.6430
  2.164  71.6798
  2.162  71.5501
  2.160  71.5307
  2.158  71.5672
  2.156  71.6090
  2.154  71.6863
  2.152  71.7416
  2.150  71.6898
  2.148  71.6198
  2.146  71.5943
  2.144  71.4888
  2.142  71.3321
  2.140  71.2430
  2.138  71.2728
  2.136  71.2583
  2.134  71.2626
  2.132  71.1602
  2.130  70.9198
  2.128  70.7240
  2.126  70.7057
  2.124  70.6228
  2.122  70.4521
  2.120  70.2355
  2.118  70.0753
  2.116  69.9279
  2.114  69.8317
  2.112  69.5314
  2.110  69.4059
  2.108  69.5461
  2.106  69.5200
  2.104  69.4854
  2.102  69.5175
  2.100  69.4947
  2.098  69.4862
  2.096  69.4082
  2.094  69.4942
  2.092  69.4747
  2.090  69.4026
  2.088  69.4023
  2.086  69.5260
  2.084  69.5956
  2.082  69.6785
  2.080  69.6571
  2.078  69.4118
  2.076  69.4900
  2.074  69.5772
  2.072  69.5502
  2.070  69.5136
  2.068  69.4791
  2.066  69.4629
  2.064  69.4432
  2.062  69.4779
  2.060  69.4810
  2.058  69.2990
  2.056  69.2970
  2.054  69.2969
  2.052  69.3109
  2.050  69.1683
  2.048  69.0216
  2.046  69.0048
  2.044  68.9738
  2.042  68.9430
  2.040  68.8630
  2.038  68.5987
  2.036  68.5426
  2.034  68.4489
  2.032  68.2601
  2.030  68.1306
  2.028  68.0682
  2.026  67.9475
  2.024  67.6865
  2.022  67.4583
  2.020  67.3076
  2.018  67.1879
  2.016  67.0115
  2.014  66.8673
  2.012  66.7110
  2.010  66.5272
  2.008  66.2870
  2.006  66.0020
  2.004  65.9389
  2.002  65.6736
  2.000  65.6617
  1.998  65.2829
  1.996  65.1636
  1.994  65.0638
  1.992  64.8502
  1.990  64.7171
  1.988  64.5911
  1.986  64.5368
  1.984  64.4741
  1.982  64.2947
  1.980  64.1164
  1.978  63.9696
  1.976  64.0524
  1.974  64.0375
  1.972  63.5536
  1.970  63.7023
  1.968  63.6298
  1.966  63.4644
  1.964  63.3111
  1.962  63.2020
  1.960  63.1800
  1.958  62.9609
  1.956  63.0657
  1.954  63.1129
  1.952  63.0372
  1.950  63.1761
  1.948  62.9629
  1.946  63.0648
  1.944  63.3276
  1.942  63.3252
  1.940  63.3550
  1.938  63.5532
  1.936  63.6740
  1.934  63.8708
  1.932  64.0491
  1.930  64.1558
  1.928  64.2784
  1.926  64.7028
  1.924  64.7575
  1.922  64.9335
  1.920  65.3348
  1.918  65.6164
  1.916  65.9745
  1.914  66.1836
  1.912  66.5301
  1.910  67.1470
  1.908  67.5398
  1.906  68.0708
  1.904  68.6131
  1.902  69.0570
  1.900  69.5687
  1.898  69.8921
  1.896  70.3710
  1.894  70.7838
  1.892  71.1855
  1.890  71.5761
  1.888  71.8319
  1.886  72.2504
  1.884  72.2994
  1.882  72.4489
  1.880  72.8542
  1.878  72.9014
  1.876  72.9831
  1.874  72.9534
  1.872  73.2167
  1.870  73.2524
  1.868  73.3355
  1.866  73.5962
  1.864  73.7008
  1.862  73.5534
  1.860  73.6294
  1.858  73.4411
  1.856  73.4627
  1.854  73.5670
  1.852  73.5056
  1.850  73.5268
  1.848  73.7100
  1.846  73.5766
  1.844  73.5915
  1.842  73.4346
  1.840  73.4413
  1.838  73.4910
  1.836  73.4614
  1.834  73.5193
  1.832  73.4653
  1.830  73.3907
  1.828  73.4540
  1.826  73.1756
  1.824  73.2976
  1.822  73.2691
  1.820  73.2624
  1.818  73.2567
  1.816  73.4171
  1.814  73.1739
  1.812  73.2379
  1.810  73.2104
  1.808  73.0696
  1.806  73.3374
  1.804  73.1220
  1.802  73.0754
  1.800  72.9655
  1.798  73.1498
  1.796  73.0418
  1.794  73.0539
  1.792  73.0501
  1.790  72.9692
  1.788  73.1131
  1.786  72.9235
  1.784  73.1647
  1.782  73.2212
  1.780  73.0516
  1.778  73.2939
  1.776  73.0681
  1.774  73.1175
  1.772  72.9695
  1.770  73.0185
  1.768  73.1686
  1.766  73.1130
  1.764  73.1090
  1.762  73.2478
  1.760  73.2109
  1.758  73.1340
  1.756  73.1330
  1.754  73.2298
  1.752  73.1443
  1.750  73.1480
  1.748  73.2347
  1.746  73.0464
  1.744  73.2217
  1.742  73.3635
  1.740  73.1034
  1.738  73.1976
  1.736  73.1750
  1.734  73.2198
  1.732  73.1798
  1.730  73.1808
  1.728  73.2128
  1.726  73.1119
  1.724  73.3265
  1.722  73.3956
  1.720  73.1685
  1.718  73.0855
  1.716  73.0789
  1.714  73.2422
  1.712  73.2496
  1.710  73.3259
  1.708  73.1566
  1.706  73.1423
  1.704  73.1736
  1.702  73.0837
  1.700  73.0351
  1.698  73.1583
  1.696  73.2356
  1.694  73.1492
  1.692  73.0082
  1.690  72.9206
  1.688  73.1017
  1.686  73.1524
  1.684  72.9892
  1.682  72.9160
  1.680  72.9521
  1.678  73.0201
  1.676  72.9223
  1.674  72.9959
  1.672  72.9432
  1.670  72.9604
  1.668  72.9521
  1.666  72.9083
  1.664  72.9176
  1.662  72.9532
  1.660  72.9964
  1.658  72.9374
  1.656  72.9939
  1.654  73.0498
  1.652  73.0105
  1.650  73.1989
  1.648  73.0924
  1.646  72.9710
  1.644  72.9274
  1.642  72.9550
  1.640  73.0106
  1.638  73.0727
  1.636  73.0673
  1.634  73.0820
  1.632  73.1369
  1.630  73.1459
  1.628  73.1728
  1.626  73.1476
  1.624  73.0829
  1.622  73.0734
  1.620  73.0910
  1.618  73.0378
  1.616  73.2103
  1.614  73.1915
  1.612  73.1900
  1.610  73.2317
  1.608  73.2129
  1.606  73.2078
  1.604  73.1711
  1.602  73.1029
  1.600  73.3130
  1.598  73.3503
  1.596  73.3023
  1.594  73.3516
  1.592  73.2489
  1.590  73.3257
  1.588  73.3611
  1.586  73.3114
  1.584  73.3060
  1.582  73.2460
  1.580  73.3988
  1.578  73.4716
  1.576  73.3472
  1.574  73.2094
  1.572  73.1727
  1.570  73.2033
  1.568  73.3432
  1.566  73.3351
  1.564  73.1898
  1.562  73.1688
  1.560  73.2161
  1.558  73.1196
  1.556  73.0858
  1.554  73.2316
  1.552  73.1477
  1.550  73.1264
  1.548  73.1011
  1.546  73.0826
  1.544  73.1855
  1.542  73.0523
  1.540  73.0004
  1.538  73.0509
  1.536  73.0027
  1.534  72.9739
  1.532  72.9538
  1.530  73.0264
  1.528  73.0139
  1.526  72.8526
  1.524  72.8838
  1.522  72.8453
  1.520  72.9644
  1.518  72.9578
  1.516  72.7265
  1.514  72.6411
  1.512  72.7295
  1.510  72.6851
  1.508  72.5792
  1.506  72.4844
  1.504  72.5441
  1.502  72.6226
  1.500  72.4140
  1.498  72.3779
  1.496  72.4133
  1.494  72.4095
  1.492  72.3228
  1.490  72.2512
  1.488  72.2195
  1.486  72.1539
  1.484  72.1192
  1.482  72.0698
  1.480  71.9258
  1.478  71.8446
  1.476  71.9381
  1.474  71.7515
  1.472  71.8134
  1.470  71.7284
  1.468  71.6666
  1.466  71.7428
  1.464  71.7467
  1.462  71.7387
  1.460  71.6585
  1.458  71.6762
  1.456  71.8329
  1.454  71.7019
  1.452  71.9022
  1.450  72.0263
  1.448  72.0149
  1.446  71.9211
  1.444  72.2123
  1.442  72.2862
  1.440  72.3202
  1.438  72.3962
  1.436  72.3443
  1.434  72.4034
  1.432  72.4795
  1.430  72.6194
  1.428  72.5399
  1.426  72.4514
  1.424  72.6336
  1.422  72.7433
  1.420  72.8319
  1.418  72.9303
  1.416  73.0179
  1.414  73.1474
  1.412  73.3325
  1.410  73.4201
  1.408  73.6111
  1.406  73.9158
  1.404  73.7504
  1.402  73.9018
  1.400  73.9606
  1.398  73.9878
  1.396  74.1673
  1.394  74.3782
  1.392  74.2471
  1.390  74.3185
  1.388  74.5004
  1.386  74.5590
  1.384  74.6245
  1.382  74.6049
  1.380  74.7676
  1.378  74.7213
  1.376  74.7289
  1.374  74.7120
  1.372  74.6012
  1.370  74.6970
  1.368  74.6730
  1.366  74.7453
  1.364  74.6179
  1.362  74.5126
  1.360  74.8241
  1.358  74.6042
  1.356  74.5269
  1.354  74.4425
  1.352  74.5225
  1.350  74.6885
  1.348  74.7589
  1.346  74.6602
  1.344  74.6518
  1.342  74.7906
  1.340  74.6655
  1.338  74.7496
  1.336  74.8219
  1.334  74.7445
  1.332  74.4966
  1.330  74.5094
  1.328  74.8401
  1.326  74.6969
  1.324  74.5058
  1.322  74.6766
  1.320  74.6463
  1.318  74.7556
  1.316  74.6469
  1.314  74.6516
  1.312  74.6931
  1.310  74.6198
  1.308  74.5563
  1.306  74.6057
  1.304  74.5593
  1.302  74.7085
  1.300  74.4278
  1.298  74.6441
  1.296  74.2732
  1.294  74.5157
  1.292  74.2779
  1.290  74.3649
  1.288  74.5883
  1.286  74.6562
  1.284  74.3328
  1.282  74.2613
  1.280  74.2927
  1.278  74.4760
  1.276  74.3494
  1.274  74.2396
  1.272  74.4101
  1.270  74.0578
  1.268  74.5134
  1.266  74.2132
  1.264  74.3900
  1.262  74.4606
  1.260  74.2245
  1.258  74.2884
  1.256  74.1856
  1.254  74.2756
  1.252  74.2885
  1.250  74.1828
  1.248  73.9218
  1.246  74.1564
  1.244  73.9106
  1.242  74.1940
  1.240  74.0971
  1.238  74.0847
  1.236  74.2029
  1.234  74.0792
  1.232  74.0207
  1.230  73.9725
  1.228  74.0189
  1.226  74.0835
  1.224  73.9220
  1.222  74.1973
  1.220  73.8193
  1.218  73.8102
  1.216  74.0126
  1.214  74.0333
  1.212  73.9227
  1.210  74.0319
  1.208  73.9213
  1.206  73.7512
  1.204  73.9965
  1.202  73.7810
  1.200  73.9533
  1.198  73.9636
  1.196  73.8083
  1.194  73.8960
  1.192  73.8294
  1.190  73.8861
  1.188  73.6111
  1.186  73.7220
  1.184  73.6855
  1.182  73.7159
  1.180  73.6187
  1.178  73.4757
  1.176  73.7761
  1.174  73.6990
  1.172  73.6975
  1.170  73.7554
  1.168  73.4724
  1.166  73.5260
  1.164  73.5794
  1.162  73.7046
  1.160  73.5947
  1.158  73.7700
  1.156  73.4280
  1.154  73.4350
  1.152  73.6102
  1.150  73.7418
  1.148  73.5679
  1.146  73.4342
  1.144  73.6317
  1.142  73.4172
  1.140  73.6137
  1.138  73.4585
  1.136  73.4638
  1.134  73.4126
  1.132  73.5427
  1.130  73.4446
  1.128  73.4993
  1.126  73.3954
  1.124  73.5506
  1.122  73.3827
  1.120  73.4214
  1.118  73.3309
  1.116  73.3567
  1.114  73.2896
  1.112  73.2065
  1.110  73.4251
  1.108  73.4079
  1.106  73.2698
  1.104  73.3242
  1.102  73.2703
  1.100  73.2479
  1.098  73.3428
  1.096  73.2355
  1.094  73.2081
  1.092  73.2278
  1.090  73.2537
  1.088  73.3578
  1.086  73.3745
  1.084  73.2099
  1.082  73.2481
  1.080  73.0407
  1.078  72.9966
  1.076  73.0160
  1.074  73.0032
  1.072  73.0162
  1.070  72.9552
  1.068  73.2301
  1.066  73.0029
  1.064  72.9932
  1.062  73.1371
  1.060  73.1713
  1.058  73.2222
  1.056  73.0074
  1.054  73.0252
  1.052  72.9503
  1.050  72.9742
  1.048  72.9678
  1.046  72.9577
  1.044  72.9004
  1.042  72.9957
  1.040  72.9872
  1.038  72.9657
  1.036  72.9852
  1.034  72.8594
  1.032  72.7955
  1.030  72.8185
  1.028  72.8893
  1.026  72.8468
  1.024  72.7884
  1.022  72.6958
  1.020  72.6582
  1.018  72.7795
  1.016  72.7113
  1.014  72.6429
  1.012  72.7713
  1.010  72.6517
  1.008  72.7540
  1.006  72.8034
  1.004  72.7878
  1.002  72.8429
  1.000  72.6756
  0.998  72.3966
  0.996  72.5463
  0.994  72.6867
  0.992  72.5195
  0.990  72.4665
  0.988  72.3627
  0.986  72.4982
  0.984  72.3858
  0.982  72.3555
  0.980  72.4067
  0.978  72.3232
  0.976  72.3375
  0.974  72.2916
  0.972  72.2636
  0.970  72.3040
  0.968  72.4066
  0.966  72.3179
  0.964  72.2805
  0.962  72.2017
  0.960  72.2197
  0.958  72.3140
  0.956  72.0424
  0.954  72.0967
  0.952  72.2247
  0.950  72.1935
  0.948  72.0684
  0.946  71.9681
  0.944  72.0386
  0.942  72.0490
  0.940  72.0983
  0.938  72.0938
  0.936  72.0072
  0.934  72.0719
  0.932  71.9542
  0.930  71.8930
  0.928  72.0001
  0.926  71.9732
  0.924  71.8882
  0.922  71.8923
  0.920  71.9002
  0.918  71.7480
  0.916  71.7887
  0.914  71.7589
  0.912  71.6825
  0.910  71.6666
  0.908  71.7418
  0.906  71.7295
  0.904  71.6706
  0.902  71.5970
  0.900  71.5526
  0.898  71.5685
  0.896  71.7111
  0.894  71.7404
  0.892  71.5545
  0.890  71.7008
  0.888  71.8780
  0.886  71.5466
  0.884  71.9059
  0.882  71.7755
  0.880  71.8180
  0.878  71.8805
  0.876  72.0009
  0.874  71.7715
  0.872  71.9492
  0.870  71.9153
  0.868  71.7576
  0.866  71.7584
  0.864  71.8547
  0.862  72.2090
  0.860  71.7980
  0.858  71.1626
  0.856  71.1680
  0.854  71.1547
  0.852  71.1155
  0.850  71.1695
  0.848  71.1835
  0.846  71.2373
  0.844  71.3029
  0.842  71.2076
  0.840  71.0945
  0.838  71.1174
  0.836  71.1619
  0.834  71.1261
  0.832  71.1341
  0.830  71.1979
  0.828  71.1466
  0.826  71.1386
  0.824  71.1259
  0.822  71.1320
  0.820  71.2015
  0.818  71.1735
  0.816  71.1251
  0.814  71.1540
  0.812  71.1414
  0.810  71.1185
  0.808  71.1065
  0.806  71.1020
  0.804  71.0956
  0.802  71.0499
  0.800  71.0178
  0.798  70.9730
  0.796  70.9579
  0.794  70.9539
  0.792  70.9104
  0.790  70.8833
  0.788  70.9081
  0.786  70.8982
  0.784  70.8549
  0.782  70.8379
  0.780  70.7868
  0.778  70.7738
  0.776  70.7233
  0.774  70.6921
  0.772  70.6790
  0.770  70.6649
  0.768  70.6128
  0.766  70.5408
  0.764  70.5369
  0.762  70.5023
  0.760  70.4536
  0.758  70.4282
  0.756  70.4072
  0.754  70.4071
  0.752  70.3618
  0.750  70.3431
  0.748  70.3342
  0.746  70.2778
  0.744  70.2832
  0.742  70.2358
  0.740  70.1915
  0.738  70.1650
  0.736  70.1633
  0.734  70.1054
  0.732  70.0584
  0.730  70.0269
  0.728  69.9745
  0.726  70.0106
  0.724  69.9281
  0.722  69.9373
  0.720  69.8970
  0.718  69.8522
  0.716  69.8169
  0.714  69.8045
  0.712  69.7813
  0.710  69.7534
  0.708  69.7477
  0.706  69.7227
  0.704  69.7094
  0.702  69.6541
  0.700  69.6512
  0.698  69.6187
  0.696  69.6174
  0.694  69.5824
  0.692  69.5650
  0.690  69.5294
  0.688  69.4924
  0.686  69.4564
  0.684  69.4420
  0.682  69.3978
  0.680  69.3995
  0.678  69.3667
  0.676  69.3460
  0.674  69.3258
  0.672  69.2955
  0.670  69.2745
  0.668  69.2450
  0.666  69.2318
  0.664  69.2027
  0.662  69.1841
  0.660  69.1668
  0.658  69.1597
  0.656  69.1141
  0.654  69.1004
  0.652  69.0585
  0.650  69.0150
  0.648  69.0082
  0.646  68.9982
  0.644  68.9699
  0.642  68.9165
  0.640  68.8700
  0.638  68.8555
  0.636  68.8390
  0.634  68.8126
  0.632  68.7494
  0.630  68.7426
  0.628  68.7210
  0.626  68.6960
  0.624  68.6280
  0.622  68.6129
  0.620  68.5635
  0.618  68.5549
  0.616  68.5047
  0.614  68.4552
  0.612  68.4418
  0.610  68.3805
  0.608  68.3272
  0.606  68.3012
  0.604  68.2597
  0.602  68.2167
  0.600  68.1554
  0.598  68.1034
  0.596  68.0184
  0.594  67.9395
  0.592  67.8957
  0.590  67.8208
  0.588  67.7616
  0.586  67.6725
  0.584  67.5644
  0.582  67.4702
  0.580  67.3963
  0.578  67.2949
  0.576  67.1820
  0.574  67.1028
  0.572  66.9769
  0.570  66.8374
  0.568  66.7243
  0.566  66.6199
  0.564  66.4983
  0.562  66.3866
  0.560  66.1842
  0.558  66.0385
  0.556  65.9258
  0.554  65.7755
  0.552  65.5945
  0.550  65.4497
  0.548  65.3127
  0.546  65.1620
  0.544  64.9784
  0.542  64.8090
  0.540  64.6481
  0.538  64.4631
  0.536  64.2932
  0.534  64.1021
  0.532  63.9184
  0.530  63.7540
  0.528  63.5348
  0.526  63.3416
  0.524  63.1564
  0.522  62.9496
  0.520  62.7505
  0.518  62.5779
  0.516  62.3985
  0.514  62.2129
  0.512  62.0687
  0.510  61.8915
  0.508  61.7379
  0.506  61.5823
  0.504  61.4234
  0.502  61.2658
  0.500  61.1014
  0.498  60.9304
  0.496  60.7482
  0.494  60.5867
  0.492  60.4101
  0.490  60.2625
  0.488  60.0775
  0.486  59.9016
  0.484  59.6806
  0.482  59.5184
  0.480  59.4107
  0.478  59.3158
  0.476  59.2341
  0.474  59.1557
  0.472  59.0577
  0.470  58.9645
  0.468  58.8918
  0.466  58.8049
  0.464  58.7178
  0.462  58.6489
  0.460  58.5402
  0.458  58.4655
  0.456  58.3315
  0.454  58.1926
  0.452  58.0182
  0.450  57.8471
  0.448  57.6555
  0.446  57.4224
  0.444  57.1662
  0.442  56.9162
  0.440  56.6986
  0.438  56.4554
  0.436  56.1949
  0.434  55.9343
  0.432  55.6901
  0.430  55.4628
  0.428  55.2405
  0.426  55.0320
  0.424  54.8266
  0.422  54.6413
  0.420  54.4682
  0.418  54.2975
  0.416  54.1383
  0.414  54.0013
  0.412  53.8426
  0.410  53.6893
  0.408  53.5397
  0.406  53.3877
  0.404  53.2342
  0.402  53.0633
  0.400  52.9145
